Type: Dye
Name: DAPI
Extinction coefficient: 27000
Quantum Yield: 0.58
wavelength,absorption,emission
250,0.557076991,0
251,0.545064986,0
252,0.53618902,0
253,0.531728983,0
254,0.535526991,0
255,0.536630988,0
256,0.54559499,0
257,0.552263021,0
258,0.560742021,0
259,0.570721984,0
260,0.576727986,0
261,0.589312971,0
262,0.595672011,0
263,0.605872989,0
264,0.614660978,0
265,0.622433007,0
266,0.622654021,0
267,0.617752016,0
268,0.606667995,0
269,0.580128014,0
270,0.547317028,0
271,0.50920701,0
272,0.467961997,0
273,0.430117011,0
274,0.395848989,0
275,0.366836011,0
276,0.342146009,0
277,0.322052985,0
278,0.305233002,0
279,0.292647004,0
280,0.277191013,0
281,0.264737993,0
282,0.252815008,0
283,0.244248003,0
284,0.236343995,0
285,0.232590005,0
286,0.232192993,0
287,0.234267995,0
288,0.236432001,0
289,0.238331005,0
290,0.242967993,0
291,0.243938997,0
292,0.244999006,0
293,0.245749995,0
294,0.247030005,0
295,0.246720999,0
296,0.247737005,0
297,0.247428,0
298,0.248399004,0
299,0.248972997,0
300,0.250696003,0
301,0.253697991,0
302,0.257364005,0
303,0.261734992,0
304,0.26730001,0
305,0.274100006,0
306,0.281783998,0
307,0.290394992,0
308,0.30103299,0
309,0.312209994,0
310,0.325233012,0
311,0.340781987,0
312,0.357517987,0
313,0.375844985,0
314,0.396290988,0
315,0.417620003,0
316,0.439033002,0
317,0.461250007,0
318,0.485713989,0
319,0.509118974,0
320,0.533318996,0
321,0.556502998,0
322,0.580260992,0
323,0.60344398,0
324,0.626981974,0
325,0.649767995,0
326,0.671361983,0
327,0.692780018,0
328,0.713313997,0
329,0.737954974,0
330,0.755883992,0
331,0.772753,0
332,0.790417016,0
333,0.806845009,0
334,0.820092976,0
335,0.835062981,0
336,0.846147001,0
337,0.859263003,0
338,0.870169997,0
339,0.882314026,0
340,0.89132297,0
341,0.900640011,0
342,0.911768973,0
343,0.919673026,0
344,0.928548992,0
345,0.937161028,0
346,0.944755971,0
347,0.951071024,0
348,0.958577991,0
349,0.964892983,0
350,0.970942974,0
351,0.975403011,0
352,0.979862988,0
353,0.984853029,0
354,0.987811983,0
355,0.991786003,0
356,0.994876981,0
357,0.997483015,0
358,0.999293029,0
359,1,0
360,0.998233974,0
361,0.995671988,0
362,0.992757976,0
363,0.987414002,0
364,0.980216026,0
365,0.971693993,0
366,0.961493015,0
367,0.948553979,0
368,0.937205017,0
369,0.921351016,0
370,0.907307982,0
371,0.891278028,0
372,0.873525977,0
373,0.85453701,0
374,0.837713003,0
375,0.817575991,0.00309981
376,0.798233986,0.00376111
377,0.776551008,0.00438796
378,0.755575001,0.00443618
379,0.732303023,0.00443618
380,0.711547971,0.00475305
381,0.687126994,0.00608597
382,0.661602974,0.0067266
383,0.635592997,0.00760488
384,0.605431974,0.00887236
385,0.570147991,0.0107736
386,0.539897978,0.0126748
387,0.509516001,0.0148929
388,0.477766007,0.017111
389,0.446500003,0.0215472
390,0.415010005,0.0253496
391,0.383926004,0.030102599
392,0.352218986,0.036123201
393,0.322499007,0.042143699
394,0.293309987,0.051966701
395,0.265179992,0.0595509
396,0.239700004,0.069893897
397,0.215544,0.082117498
398,0.192625001,0.093304403
399,0.171251997,0.102913998
400,0.152352005,0.118102998
401,0.134289995,0.130585
402,0.118833996,0.144991994
403,0.103598997,0.161238998
404,0.090439402,0.180243999
405,0.0790461,0.198329002
406,0.068889402,0.216721997
407,0.0593509,0.239712
408,0.050651401,0.257629007
409,0.044468999,0.278542012
410,0.038507398,0.29885
411,0.0324133,0.313432992
412,0.028792201,0.337404013
413,0.024950299,0.35689199
414,0.0213292,0.376352012
415,0.018105499,0.39884299
416,0.0155884,0.418612987
417,0.0133804,0.444994986
418,0.01104,0.462078989
419,0.00918525,0.486084998
420,0.0075955,0.509162009
421,0.00675646,0.532271981
422,0.00587326,0.554798007
423,0.00529918,0.573466003
424,0.00481342,0.587586999
425,0.00353279,0.611868978
426,0.00331199,0.627987981
427,0.00251711,0.648756981
428,0.00216383,0.671006024
429,0.0015456,0.696493983
430,0.0013248,0.713163972
431,0.00105984,0.737756014
432,0.000353279,0.750636995
433,4.42E-05,0.771440029
434,1.00E-05,0.790453017
435,1.00E-05,0.808018029
436,1.00E-05,0.820900023
437,1.00E-05,0.837293983
438,1.00E-05,0.847833991
439,1.00E-05,0.856926024
440,1.00E-05,0.869772971
441,1.00E-05,0.896604002
442,1.00E-05,0.912895024
443,1.00E-05,0.913205028
444,1.00E-05,0.927429974
445,1.00E-05,0.943720996
446,1.00E-05,0.943720996
447,1.00E-05,0.950815976
448,1.00E-05,0.958531022
449,1.00E-05,0.966211975
450,1.00E-05,0.963249981
451,0.00E+00,0.970070004
452,0.00E+00,0.974822998
453,0.00E+00,0.978060007
454,0.00E+00,0.992733002
455,0.00E+00,0.988255024
456,0.00E+00,0.993043005
457,0.00E+00,0.995729029
458,0.00E+00,0.98794502
459,0.00E+00,0.993248999
460,0.00E+00,0.994109988
461,0.00E+00,1
462,0.00E+00,0.991321027
463,0.00E+00,0.998898029
464,0.00E+00,0.998139977
465,0.00E+00,0.988323987
466,0.00E+00,0.991044998
467,0.00E+00,0.979851007
468,0.00E+00,0.981642008
469,0.00E+00,0.971584976
470,0.00E+00,0.96982801
471,0.00E+00,0.961320996
472,0.00E+00,0.952813983
473,0.00E+00,0.942653
474,0.00E+00,0.930563986
475,0.00E+00,0.924019992
476,0.00E+00,0.913860023
477,0.00E+00,0.907660007
478,0.00E+00,0.911276996
479,0.00E+00,0.901013017
480,0.00E+00,0.893745005
481,0.00E+00,0.872563004
482,0.00E+00,0.865639985
483,0.00E+00,0.841565013
484,0.00E+00,0.834711015
485,0.00E+00,0.823895991
486,0.00E+00,0.816353023
487,0.00E+00,0.802610993
488,0.00E+00,0.791176021
489,0.00E+00,0.782359004
490,0.00E+00,0.780671
491,0.00E+00,0.770752013
492,0.00E+00,0.750913024
493,0.00E+00,0.739650011
494,0.00E+00,0.730729997
495,0.00E+00,0.719811022
496,0.00E+00,0.706929982
497,0.00E+00,0.69105202
498,0.00E+00,0.686230004
499,0.00E+00,0.675863028
500,0.00E+00,0.667527974
501,0.00E+00,0.648136973
502,0.00E+00,0.646723986
503,0.00E+00,0.632534027
504,0.00E+00,0.618034005
505,0.00E+00,0.609939992
506,0.00E+00,0.610009015
507,0.00E+00,0.59296
508,0.00E+00,0.580699027
509,0.00E+00,0.575187981
510,0.00E+00,0.557967007
511,0.00E+00,0.550388992
512,0.00E+00,0.538334012
513,0.00E+00,0.530860007
514,0.00E+00,0.519011974
515,0.00E+00,0.51067698
516,0.00E+00,0.502376974
517,0.00E+00,0.487980008
518,0.00E+00,0.480711997
519,0.00E+00,0.472548991
520,0.00E+00,0.458703995
521,0.00E+00,0.453846991
522,0.00E+00,0.44344601
523,0.00E+00,0.429118007
524,0.00E+00,0.421299011
525,0.00E+00,0.414065987
526,0.00E+00,0.408176988
527,0.00E+00,0.397224009
528,0.00E+00,0.391368985
529,0.00E+00,0.381794006
530,0.00E+00,0.372597992
531,0.00E+00,0.367879003
532,0.00E+00,0.355618
533,0.00E+00,0.347627014
534,0.00E+00,0.338254988
535,0.00E+00,0.331873
536,0.00E+00,0.323552012
537,0.00E+00,0.316731989
538,0.00E+00,0.312730014
539,0.00E+00,0.302406996
540,0.00E+00,0.299346
541,0.00E+00,0.290473014
542,0.00E+00,0.286839992
543,0.00E+00,0.275941998
544,0.00E+00,0.270924002
545,0.00E+00,0.265426993
546,0.00E+00,0.258249015
547,0.00E+00,0.249930993
548,0.00E+00,0.248108998
549,0.00E+00,0.237720996
550,0.00E+00,0.234935001
551,0.00E+00,0.230098993
552,0.00E+00,0.225156993
553,0.00E+00,0.220280007
554,0.00E+00,0.213128999
555,0.00E+00,0.208211005
556,0.00E+00,0.203347996
557,0.00E+00,0.199625
558,0.00E+00,0.192122996
559,0.00E+00,0.189509004
560,0.00E+00,0.183625996
561,0.00E+00,0.180048004
562,0.00E+00,0.175810993
563,0.00E+00,0.170834005
564,0.00E+00,0.168272004
565,0.00E+00,0.163170993
566,0.00E+00,0.158435002
567,0.00E+00,0.157532007
568,0.00E+00,0.151456997
569,0.00E+00,0.148721993
570,0.00E+00,0.143911004
571,0.00E+00,0.139312997
572,0.00E+00,0.134021997
573,0.00E+00,0.131817997
574,0.00E+00,0.129292995
575,0.00E+00,0.124406002
576,0.00E+00,0.124026999
577,0.00E+00,0.119997002
578,0.00E+00,0.116862997
579,0.00E+00,0.112799004
580,0.00E+00,0.109640002
581,0.00E+00,0.108204
582,0.00E+00,0.103202999
583,0.00E+00,0.099111401
584,0.00E+00,0.0959289
585,0.00E+00,0.096197598
586,0.00E+00,0.091616698
587,0.00E+00,0.090242498
588,0.00E+00,0.086577803
589,0.00E+00,0.083536498
590,0.00E+00,0.082152002
591,0.00E+00,0.080767401
592,0.00E+00,0.077536702
593,0.00E+00,0.075690597
594,0.00E+00,0.070613801
595,0.00E+00,0.072535597
596,0.00E+00,0.068815902
597,0.00E+00,0.0674209
598,0.00E+00,0.065096103
599,0.00E+00,0.063236199
