Type: dye
Name: DiO
Extinction coefficient: 154000
Quantum Yield: 0.07
wavelength,absorption,emission
250,0.061944801,0
251,0.061487701,0
252,0.061149899,0
253,0.0599376,0
254,0.059142701,0
255,0.058486901,0
256,0.0571156,0
257,0.056459799,0
258,0.0547706,0
259,0.054214101,0
260,0.053220499,0
261,0.051849201,0
262,0.050935,0
263,0.050319001,0
264,0.049504202,0
265,0.049067002,0
266,0.048590001,0
267,0.0479143,0
268,0.047556601,0
269,0.046801399,0
270,0.045807701,0
271,0.044814099,0
272,0.043721098,0
273,0.042488899,0
274,0.041316401,0
275,0.040123999,0
276,0.0393291,0
277,0.038633499,0
278,0.037677601,0
279,0.037282102,0
280,0.037103299,0
281,0.037321899,0
282,0.036984,0
283,0.037262298,0
284,0.037321899,0
285,0.0380373,0
286,0.038375199,0
287,0.0390906,0
288,0.039507899,0
289,0.039587401,0
290,0.0407997,0
291,0.041137502,0
292,0.041793399,0
293,0.041992102,0
294,0.0418927,0
295,0.041952301,0
296,0.0414754,0
297,0.041276701,0
298,0.0408394,0
299,0.040759999,0
300,0.039704699,0
301,0.038573898,0
302,0.037339799,0
303,0.034857601,0
304,0.032989498,0
305,0.0298297,0
306,0.027107099,0
307,0.023768401,0
308,0.021204701,0
309,0.0179455,0
310,0.015362,0
311,0.0131163,0
312,0.0118246,0
313,0.00961863,0
314,0.00788966,0
315,0.00683638,0
316,0.00610108,0
317,0.00490868,0
318,0.00399451,0
319,0.00343807,0
320,0.00286174,0
321,0.00270276,0
322,0.00228542,0
323,0.00135138,0
324,0.00188795,0
325,0.001411,0
326,0.000914168,0
327,0.00129176,0
328,0.001411,0
329,0.00182834,0
330,0.00173096,0
331,0.00123413,0
332,0.00182834,0
333,0.00200719,0
334,0.00232715,0
335,0.00123413,0
336,0.00228542,0
337,0.00218605,0
338,0.00190982,0
339,0.00186808,0
340,0.00178859,0
341,0.00220593,0
342,0.00246428,0
343,0.0024444,0
344,0.00182834,0
345,0.00238479,0
346,0.00230529,0
347,0.00214631,0
348,0.00250402,0
349,0.00264314,0
350,0.00288162,0
351,0.00196745,0
352,0.00296111,0
353,0.00298098,0
354,0.00256364,0
355,0.00327908,0
356,0.0025855,0
357,0.00342018,0
358,0.00312009,0
359,0.00321946,0
360,0.00365667,0
361,0.00361692,0
362,0.00347781,0
363,0.00365667,0
364,0.00381566,0
365,0.00407401,0
366,0.00427473,0
367,0.0036368,0
368,0.00423299,0
369,0.00403426,0
370,0.00371629,0
371,0.00419523,0
372,0.00407401,0
373,0.00411375,0
374,0.0041535,0
375,0.00441185,0
376,0.00457084,0
377,0.00570361,0
378,0.00490868,0
379,0.00472982,0
380,0.00588247,0
381,0.00610108,0
382,0.0058626,0
383,0.00596196,0
384,0.00651841,0
385,0.00657803,0
386,0.00733321,0
387,0.00743258,0
388,0.0074922,0
389,0.00806852,0
390,0.00848586,0
391,0.00866472,0
392,0.00918142,0
393,0.00967825,0
394,0.0103738,0
395,0.010811,0
396,0.0115463,0
397,0.012222,0
398,0.0130567,0
399,0.0135734,0
400,0.0147459,0
401,0.015838901,0
402,0.016594101,0
403,0.017965401,0
404,0.018839801,0
405,0.0206085,0
406,0.0219201,0
407,0.023192,0
408,0.0253383,0
409,0.0268487,0
410,0.0287963,0
411,0.030863101,0
412,0.033227999,0
413,0.035334598,0
414,0.0382738,0
415,0.0405811,0
416,0.043502498,0
417,0.046721902,0
418,0.049881801,0
419,0.052723601,0
420,0.0566983,0
421,0.060215801,0
422,0.065700799,0
423,0.069913901,0
424,0.075021401,0
425,0.080029398,0
426,0.085534297,0
427,0.0912975,0
428,0.097597301,0
429,0.103896998,0
430,0.111091003,0
431,0.117709003,0
432,0.125618994,0
433,0.132692993,0
434,0.141259,0
435,0.149207994,0
436,0.157177001,0
437,0.165503994,0
438,0.174623996,0
439,0.183587,0
440,0.192868993,0
441,0.202250004,0
442,0.212365001,0
443,0.222619995,0
444,0.234562993,0
445,0.246169001,0
446,0.258947998,0
447,0.272581011,0
448,0.287824005,0
449,0.303622991,0
450,0.320257008,0
451,0.338301986,0
452,0.3574,0
453,0.377570987,0
454,0.397365004,0
455,0.418570012,0
456,0.439099014,0
457,0.459886014,0
458,0.479223013,0
459,0.498142004,0
460,0.516048014,0
461,0.531826973,0
462,0.546096027,0
463,0.558457017,0
464,0.568889976,0
465,0.577277005,0
466,0.58445102,0
467,0.589459002,0
468,0.594506979,0
469,0.598661005,0
470,0.603828013,0
471,0.609073997,0
472,0.615989983,0
473,0.624158025,0
474,0.634333014,0
475,0.648164988,0.029999999
476,0.665196002,0.033
477,0.685467005,0.035999998
478,0.708917022,0.039000001
479,0.73546797,0.0422763
480,0.764780998,0.043340899
481,0.796916008,0.048511401
482,0.830341995,0.055962902
483,0.864543974,0.066109098
484,0.896838009,0.078631297
485,0.927561998,0.0940549
486,0.954569995,0.112866998
487,0.976568997,0.134010002
488,0.992428005,0.159819007
489,1,0.190551996
490,0.998887002,0.227752998
491,0.988632977,0.270310014
492,0.967746019,0.319045007
493,0.937380016,0.3741
494,0.897673011,0.435308993
495,0.850116014,0.499632001
496,0.79470998,0.566330016
497,0.732843995,0.633122981
498,0.669368982,0.697944999
499,0.602635026,0.756991982
500,0.537213027,0.810074985
501,0.472346008,0.861280978
502,0.412627012,0.908541977
503,0.355870008,0.947511017
504,0.304636002,0.974457026
505,0.258928001,0.992824018
506,0.218465999,1
507,0.183171004,0.996864021
508,0.152744994,0.985529006
509,0.127823994,0.966853023
510,0.106222004,0.941262007
511,0.088594802,0.906974018
512,0.073530897,0.874445021
513,0.0616467,0.842176974
514,0.0517896,0.809719026
515,0.043979399,0.775906026
516,0.0375604,0.742402017
517,0.032333702,0.711274981
518,0.0280411,0.680028021
519,0.024861399,0.649874985
520,0.0224369,0.62233597
521,0.0207476,0.598502994
522,0.0187007,0.57752198
523,0.0174686,0.561554015
524,0.0164153,0.547843993
525,0.0151831,0.538314998
526,0.0150043,0.528572977
527,0.0137324,0.519186974
528,0.0131958,0.511703014
529,0.0128182,0.50495398
530,0.0122816,0.499940991
531,0.0118246,0.492431998
532,0.0123611,0.485112995
533,0.0119041,0.477746993
534,0.0117451,0.471473992
535,0.0114668,0.46579501
536,0.0117252,0.459475011
537,0.0111886,0.454127997
538,0.0110893,0.447712988
539,0.0109104,0.441487014
540,0.0107713,0.433171004
541,0.0111489,0.424901992
542,0.01097,0.415468991
543,0.0106719,0.406962007
544,0.0109104,0.395556986
545,0.0107713,0.385457993
546,0.0109501,0.373055011
547,0.010811,0.362623006
548,0.0112284,0.351027995
549,0.0108706,0.341641992
550,0.0110296,0.330972999
551,0,0.321040988
552,0,0.308827013
553,0,0.297825992
554,0,0.287299007
555,0,0.277747005
556,0,0.268622994
557,0,0.259355992
558,0,0.25187099
559,0,0.244553
560,0,0.236974999
561,0,0.228487998
562,0,0.221438006
563,0,0.214197993
564,0,0.208856001
565,0,0.202407002
566,0,0.197529003
567,0,0.191385999
568,0,0.185496002
569,0,0.179262996
570,0,0.174060002
571,0,0.168347001
572,0,0.163528994
573,0,0.158351004
574,0,0.154379994
575,0,0.150573999
576,0,0.147060007
577,0,0.143739998
578,0,0.140175998
579,0,0.136392996
580,0,0.132930994
581,0,0.129828006
582,0,0.126401007
583,0,0.123056002
584,0,0.119900003
585,0,0.117680997
586,0,0.114822
587,0,0.111768998
588,0,0.108661003
589,0,0.106392004
590,0,0.104010999
591,0,0.101359002
592,0,0.0980682
593,0,0.095413998
594,0,0.0929856
595,0,0.090761602
596,0,0.087358899
597,0,0.084685698
598,0,0.081798702
599,0,0.079553299
600,0,0.076880097
601,0,0.074848503
602,0,0.072603099
603,0,0.070310101
604,0,0.068012401
605,0,0.065816797
606,0,0.063554697
607,0,0.060969502
608,0,0.058707401
609,0,0.056445301
610,0,0.054744001
611,0,0.0529286
612,0,0.051324699
613,0,0.049155299
614,0,0.047202099
615,0,0.045465101
616,0,0.044151101
617,0,0.042720702
618,0,0.041506499
619,0,0.039833698
620,0,0.038602799
621,0,0.037122499
622,0,0.0359843
623,0,0.034810498
624,0,0.0334347
625,0,0.0323512
626,0,0.031027701
627,0,0.030264899
628,0,0.029606801
629,0,0.0292836
630,0,0.0284424
631,0,0.027589399
632,0,0.0265487
633,0,0.025726501
634,0,0.025134901
635,0,0.0241131
636,0,0.0235564
637,0,0.0226321
638,0,0.0226596
639,0,0.021952501
640,0,0.021479599
641,0,0.020632001
642,0,0.020183001
643,0,0.0193466
644,0,0.0187525
645,0,0.0181062
646,0,0.0179986
647,0,0.0177586
648,0,0.017772799
649,0,0.017749799
