## Type: Dye
## Name: LSSmOrange
Extinction coefficient: 52000
Quantum Yield: 0.45
wavelength,absorption,emission
332,0.0194,0
333,0.0222,0
334,0.025,0
335,0.0278,0
336,0.0306,0
337,0.0334,0
338,0.0361,0
339,0.0389,0
340,0.0416,0
341,0.0443,0
342,0.0472,0
343,0.0506,0
344,0.0547,0
345,0.0595,0
346,0.0648,0
347,0.0701,0
348,0.0751,0
349,0.0796,0
350,0.0838,0
351,0.0879,0
352,0.0922,0
353,0.0968,0
354,0.1016,0
355,0.1066,0
356,0.112,0
357,0.1176,0
358,0.1234,0
359,0.1291,0
360,0.1353,0
361,0.1423,0
362,0.1502,0
363,0.159,0
364,0.1687,0
365,0.179,0
366,0.1896,0
367,0.1998,0
368,0.21,0
369,0.2201,0
370,0.2299,0
371,0.2393,0
372,0.2488,0
373,0.2585,0
374,0.2688,0
375,0.2799,0
376,0.2917,0
377,0.304,0
378,0.3164,0
379,0.3287,0
380,0.341,0
381,0.3535,0
382,0.3665,0
383,0.3803,0
384,0.3942,0
385,0.4077,0
386,0.4205,0
387,0.4329,0
388,0.4455,0
389,0.4587,0
390,0.4728,0
391,0.4876,0
392,0.5029,0
393,0.5183,0
394,0.5336,0
395,0.5489,0
396,0.5638,0
397,0.5783,0
398,0.5926,0
399,0.607,0
400,0.6218,0
401,0.6368,0
402,0.6519,0
403,0.6672,0
404,0.6824,0
405,0.6979,0
406,0.7137,0
407,0.7298,0
408,0.7458,0
409,0.7618,0
410,0.7773,0
411,0.7921,0
412,0.8063,0
413,0.8193,0
414,0.8311,0
415,0.8419,0
416,0.852,0
417,0.862,0
418,0.8718,0
419,0.8815,0
420,0.8911,0
421,0.9004,0
422,0.9093,0
423,0.9179,0
424,0.9264,0
425,0.9348,0
426,0.9433,0
427,0.952,0
428,0.9604,0
429,0.9684,0
430,0.9761,0
431,0.9829,0
432,0.9885,0
433,0.9926,0
434,0.9955,0
435,0.9978,0
436,0.9994,0
437,1,0
438,0.9999,0
439,0.9984,0
440,0.9951,0
441,0.9902,0
442,0.9841,0
443,0.9774,0
444,0.9702,0
445,0.9621,0
446,0.9534,0
447,0.9443,0
448,0.9348,0
449,0.9255,0
450,0.9162,0
451,0.9062,0
452,0.8956,0
453,0.8841,0
454,0.872,0
455,0.8593,0
456,0.8468,0
457,0.8356,0
458,0.8251,0
459,0.8128,0
460,0.7981,0
461,0.7813,0
462,0.7623,0
463,0.7416,0
464,0.7213,0
465,0.7017,0
466,0.6794,0
467,0.6546,0
468,0.6268,0
469,0.5962,0
470,0.5645,0.0184
471,0.531,0.0184
472,0.4997,0.0184
473,0.4692,0.0184
474,0.438,0.0184
475,0.4086,0.0184
476,0.3803,0.0184
477,0.3528,0.0184
478,0.3278,0.0184
479,0.3029,0.0184
480,0.2792,0.0184
481,0.2561,0.0184
482,0.2344,0.0184
483,0.2146,0.0184
484,0.1964,0.0184
485,0.1789,0.0184
486,0.163,0.0184
487,0.1477,0.0184
488,0.1327,0.0184
489,0.1188,0.0184
490,0.107,0.0184
491,0.0971,0.0184
492,0.0885,0.0184
493,0.0806,0.0183
494,0.0735,0.0184
495,0.0672,0.0185
496,0.0618,0.0187
497,0.0568,0.0189
498,0.0525,0.0192
499,0.0488,0.0195
500,0.0455,0.0198
501,0.0424,0.0201
502,0.0394,0.0203
503,0.0363,0.0206
504,0.0335,0.0209
505,0.031,0.0212
506,0.0288,0.0215
507,0.0268,0.0218
508,0.0251,0.022
509,0.0238,0.0223
510,0,0.0226
511,0,0.0229
512,0,0.0232
513,0,0.0235
514,0,0.0238
515,0,0.0241
516,0,0.0243
517,0,0.0246
518,0,0.0249
519,0,0.0253
520,0,0.0258
521,0,0.0264
522,0,0.027
523,0,0.0277
524,0,0.0285
525,0,0.0292
526,0,0.0298
527,0,0.0304
528,0,0.031
529,0,0.0319
530,0,0.0334
531,0,0.0355
532,0,0.0381
533,0,0.0412
534,0,0.0444
535,0,0.0473
536,0,0.0505
537,0,0.0543
538,0,0.0589
539,0,0.0651
540,0,0.0736
541,0,0.0841
542,0,0.0953
543,0,0.1069
544,0,0.1212
545,0,0.1363
546,0,0.1538
547,0,0.1764
548,0,0.2033
549,0,0.2296
550,0,0.2587
551,0,0.2899
552,0,0.3262
553,0,0.3625
554,0,0.4033
555,0,0.4479
556,0,0.491
557,0,0.5325
558,0,0.5755
559,0,0.6195
560,0,0.6663
561,0,0.7099
562,0,0.7537
563,0,0.7955
564,0,0.8323
565,0,0.8669
566,0,0.8968
567,0,0.9235
568,0,0.9478
569,0,0.9662
570,0,0.9814
571,0,0.9927
572,0,0.9986
573,0,1
574,0,0.9977
575,0,0.9922
576,0,0.9841
577,0,0.9723
578,0,0.9585
579,0,0.9408
580,0,0.9197
581,0,0.8976
582,0,0.875
583,0,0.8523
584,0,0.8288
585,0,0.8049
586,0,0.7816
587,0,0.7582
588,0,0.7359
589,0,0.7156
590,0,0.6962
591,0,0.6783
592,0,0.6615
593,0,0.6461
594,0,0.632
595,0,0.6187
596,0,0.6057
597,0,0.5931
598,0,0.581
599,0,0.57
600,0,0.56
601,0,0.551
602,0,0.5428
603,0,0.535
604,0,0.527
605,0,0.5193
606,0,0.5122
607,0,0.5055
608,0,0.4989
609,0,0.4923
610,0,0.4857
611,0,0.4788
612,0,0.4717
613,0,0.4644
614,0,0.4573
615,0,0.4496
616,0,0.4411
617,0,0.4322
618,0,0.423
619,0,0.4137
620,0,0.4047
621,0,0.3963
622,0,0.389
623,0,0.3816
624,0,0.3743
625,0,0.3667
626,0,0.3585
627,0,0.3497
628,0,0.3405
629,0,0.3313
630,0,0.3225
631,0,0.3141
632,0,0.3063
633,0,0.2986
634,0,0.2907
635,0,0.2825
636,0,0.2739
637,0,0.2651
638,0,0.2565
639,0,0.2482
640,0,0.2407
641,0,0.2337
642,0,0.2271
643,0,0.2207
644,0,0.2143
645,0,0.2079
646,0,0.2013
647,0,0.1948
648,0,0.1886
649,0,0.1825
650,0,0.177
651,0,0.1719
652,0,0.1674
653,0,0.1632
654,0,0.1592
655,0,0.1555
656,0,0.1521
657,0,0.1488
658,0,0.1457
659,0,0.1428
660,0,0.14
661,0,0.1371
662,0,0.1343
663,0,0.1314
664,0,0.1287
665,0,0.1259
666,0,0.1232
667,0,0.1206
668,0,0.118
669,0,0.1155
670,0,0.1131
671,0,0.1107
672,0,0.1085
673,0,0.1063
674,0,0.1043
675,0,0.1024
676,0,0.1006
677,0,0.0989
678,0,0.0974
679,0,0.0958
680,0,0.0942
681,0,0.0927
682,0,0.0911
683,0,0.0896
684,0,0.0881
685,0,0.0865
686,0,0.085
687,0,0.0835
688,0,0.082
689,0,0.0805
690,0,0.0792
691,0,0.0778
692,0,0.0766
693,0,0.0753
694,0,0.0741
695,0,0.0729
696,0,0.0717
697,0,0.0705
698,0,0.0695
699,0,0.0685
700,0,0.0676
701,0,0.0668
702,0,0.066
703,0,0.0652
704,0,0.0643
705,0,0.0635
706,0,0.0626
707,0,0.0618
708,0,0.061
709,0,0.0603
710,0,0.0596
711,0,0.0589
712,0,0.0583
713,0,0.0577
714,0,0.0571
715,0,0.0566
716,0,0.0561
717,0,0.0555
718,0,0.0549
719,0,0.0543
720,0,0.0538
721,0,0.0533
722,0,0.053
723,0,0.0528
724,0,0.0527
725,0,0.0526
726,0,0.0524
727,0,0.0522
728,0,0.0519
729,0,0.0515
730,0,0.0512
731,0,0.0508
732,0,0.0504
733,0,0.05
734,0,0.0496
735,0,0.0493
736,0,0.0492
737,0,0.0491
738,0,0.0491
739,0,0.0491
740,0,0.0491
741,0,0.049
742,0,0.0489
743,0,0.0487
744,0,0.0485
745,0,0.0484
746,0,0.0484
747,0,0.0485
748,0,0.0486
749,0,0.0487