## Type: Dye
## Name: lysotracker red
Extinction coefficient: 
Quantum Yield: 
wavelength,absorption,emission
250,0.081935696,0
251,0.0749695,0
252,0.069529198,0
253,0.065097399,0
254,0.062058799,0
255,0.0600552,0
256,0.058515999,0
257,0.057799499,0
258,0.057826001,0
259,0.0586222,0
260,0.059869401,0
261,0.061514799,0
262,0.063916497,0
263,0.066477403,0
264,0.069449604,0
265,0.072872996,0
266,0.076336198,0
267,0.0802771,0
268,0.084390402,0
269,0.088794403,0
270,0.093466401,0
271,0.098641299,0
272,0.103497997,0
273,0.108620003,0
274,0.113449,0
275,0.118492,0
276,0.122418001,0
277,0.126771003,0
278,0.131004006,0
279,0.135462999,0
280,0.140107006,0
281,0.145294994,0
282,0.151186004,0
283,0.156653002,0
284,0.162677005,0
285,0.168170005,0
286,0.173411995,0
287,0.177444994,0
288,0.180483997,0
289,0.182221994,0
290,0.182181999,0
291,0.180803001,0
292,0.178241998,0
293,0.174553007,0
294,0.170399994,0
295,0.165622994,0
296,0.160367996,0
297,0.154542997,0
298,0.148160994,0
299,0.141406998,0
300,0.134095997,0
301,0.126996994,0
302,0.119897999,0
303,0.112705998,0
304,0.106137998,0
305,0.100126997,0
306,0.094660603,0
307,0.0896184,0
308,0.085438699,0
309,0.081803001,0
310,0.079016499,0
311,0.076349497,0
312,0.074213199,0
313,0.072634101,0
314,0.071426697,0
315,0.070245698,0
316,0.069117904,0
317,0.068534002,0
318,0.067830801,0
319,0.067392901,0
320,0.066915199,0
321,0.066477403,0
322,0.066543698,0
323,0.066411003,0
324,0.066132396,0
325,0.065973103,0
326,0.066105798,0
327,0.066145599,0
328,0.065787397,0
329,0.065813899,0
330,0.065840498,0
331,0.066013001,0
332,0.066026203,0
333,0.065946601,0
334,0.0662385,0
335,0.066251799,0
336,0.066424303,0
337,0.066225298,0
338,0.0662916,0
339,0.066835597,0
340,0.067180596,0
341,0.067419499,0
342,0.067963503,0
343,0.068308502,0
344,0.0685606,0
345,0.069078103,0
346,0.069436297,0
347,0.069821097,0
348,0.070192702,0
349,0.070484601,0
350,0.070895903,0
351,0.071015298,0
352,0.071055099,0
353,0.071055099,0
354,0.070909202,0
355,0.070856102,0
356,0.071041897,0
357,0.070643798,0
358,0.070749998,0
359,0.0708296,0
360,0.070484601,0
361,0.0704979,0
362,0.070564203,0
363,0.070603997,0
364,0.070577502,0
365,0.070643798,0
366,0.0707765,0
367,0.070803002,0
368,0.071002103,0
369,0.071479797,0
370,0.071745098,0
371,0.072103404,0
372,0.072129898,0
373,0.072488204,0
374,0.072607599,0
375,0.072673999,0
376,0.072461702,0
377,0.072103404,0
378,0.071718603,0
379,0.071333803,0
380,0.070590697,0
381,0.0692771,0
382,0.068401404,0
383,0.067379698,0
384,0.066158898,0
385,0.064646304,0
386,0.063465297,0
387,0.062509999,0
388,0.061594401,0
389,0.060984001,0
390,0.060347099,0
391,0.060320601,0
392,0.0601083,0
393,0.0598296,0
394,0.059537701,0
395,0.0587814,0
396,0.057427902,0
397,0.0556366,0
398,0.052996099,0
399,0.049745198,0
400,0.0456849,0
401,0.041704301,0
402,0.037245899,0
403,0.032614999,0
404,0.028568,0
405,0.024746601,0
406,0.021071101,0
407,0.0180458,0
408,0.0156573,0
409,0.0134282,0
410,0.0117297,0
411,0.0104028,0
412,0.00932806,0
413,0.00831962,0
414,0.00778886,0
415,0.00727138,0
416,0.007006,0
417,0.00668754,0
418,0.00632928,0
419,0.0064487,0
420,0.0060639,0
421,0.00619659,0
422,0.00620986,0
423,0.00617005,0
424,0.0064487,0
425,0.00639563,0
426,0.00647524,0
427,0.00631601,0
428,0.00643543,0
429,0.00654158,0
430,0.00679369,0
431,0.0070458,0
432,0.00707234,0
433,0.00717849,0
434,0.00711215,0
435,0.00740407,0
436,0.00780213,0
437,0.00796136,0
438,0.00821347,0
439,0.00845231,0
440,0.00839924,0
441,0.00889019,0
442,0.00908922,0
443,0.0093546,0
444,0.00958017,0
445,0.00972613,0
446,0.00999151,0
447,0.0102436,0
448,0.0105753,0
449,0.0108659,0
450,0.0113582,0
451,0.0116767,0
452,0.0120482,0
453,0.0124861,0
454,0.0130155,0
455,0.013468,0
456,0.0137997,0
457,0.0143172,0
458,0.0150602,0
459,0.015843101,0
460,0.0164667,0
461,0.017302699,0
462,0.0181784,0
463,0.0190807,0
464,0.019876899,0
465,0.0209384,0
466,0.021999899,0
467,0.022743,0
468,0.024215801,0
469,0.025290599,0
470,0.0262725,0
471,0.0273738,0
472,0.0281699,0
473,0.029112,0
474,0.030120499,0
475,0.0309697,0
476,0.032110799,0
477,0.033278499,0
478,0.034565601,0
479,0.035985399,0
480,0.037192799,0
481,0.038413599,0
482,0.039979301,0
483,0.041677698,0
484,0.043548599,0
485,0.0453001,0
486,0.0477947,0
487,0.050183099,0
488,0.052916501,0
489,0.055610102,0
490,0.058608901,0
491,0.0617669,0
492,0.065269902,0
493,0.068680003,0
494,0.072660699,0
495,0.0764025,0
496,0.080502599,0
497,0.084456801,0
498,0.088462703,0
499,0.092550799,0
500,0.096279398,0
501,0.100100003,0
502,0.103855997,0
503,0.107410997,0
504,0.110875003,0
505,0.114203997,0
506,0.117324002,0
507,0.120282002,0
508,0.123347998,0
509,0.126387,0
510,0.129304007,0
511,0.132530004,0
512,0.135767996,0
513,0.139271006,0
514,0.143383995,0
515,0.147723004,0
516,0.152512997,0
517,0.157740995,0
518,0.163791999,0
519,0.170213997,0
520,0.177658007,0
521,0.186149999,0
522,0.194921002,0
523,0.204845995,0
524,0.215380996,0
525,0.227310002,0
526,0.239583999,0
527,0.253542989,0
528,0.267580986,0
529,0.282350004,0
530,0.297582,0
531,0.313306004,0
532,0.329201996,0
533,0.344063014,0
534,0.359043986,0
535,0.372446001,0
536,0.385156989,0
537,0.395745993,0
538,0.405207008,0
539,0.412490994,0
540,0.417892009,0
541,0.421752989,0
542,0.423584014,0
543,0.423929006,0
544,0.423067003,0
545,0.421142995,0
546,0.418502003,0
547,0.415596008,0
548,0.412889004,0
549,0.410355002,0
550,0.408643007,0
551,0.407873988,0
552,0.408311993,0
553,0.41040799,0
554,0.413686007,0
555,0.419126004,0
556,0.426344007,0
557,0.435698986,0
558,0.447454989,0
559,0.46133399,0
560,0.478053004,0.035319898
561,0.497054011,0.041108899
562,0.51909399,0.047787301
563,0.543627977,0.055641901
564,0.571506023,0.065324701
565,0.602807999,0.0776245
566,0.635555029,0.0921693
567,0.671660006,0.109357998
568,0.709887981,0.129987001
569,0.750901997,0.155689001
570,0.791783988,0.184228003
571,0.834336996,0.219465002
572,0.874396026,0.260850996
573,0.912598014,0.30519101
574,0.945358992,0.352620006
575,0.97230798,0.405037999
576,0.991096973,0.460875005
577,1,0.520375013
578,0.998513997,0.579780996
579,0.986373007,0.639280975
580,0.963231981,0.701843977
581,0.930643022,0.759033024
582,0.888090014,0.811946988
583,0.83971101,0.859830022
584,0.783954978,0.904906988
585,0.725637972,0.939149976
586,0.663632989,0.964653015
587,0.601294994,0.981736004
588,0.541478992,0.996953011
589,0.483227998,1
590,0.427776992,0.991513014
591,0.37508601,0.982325971
592,0.32861799,0.96559
593,0.284990013,0.939640999
594,0.247743994,0.915365994
595,0.213696003,0.887615025
596,0.184704006,0.856271029
597,0.158815995,0.822107017
598,0.136576995,0.789637983
599,0.117694996,0.756761014
600,0.101507001,0.723688006
601,0.087627999,0.692035019
602,0.075672701,0.656732023
603,0.066065997,0.627041996
604,0.057480998,0.60087198
605,0.050528102,0.57120198
606,0.044716299,0.545175016
607,0.039713901,0.521682024
608,0.035401501,0.497155994
609,0.0318189,0.472404987
610,0.0289794,0.454127014
611,0.0264981,0.439576
612,0.0242556,0.421669006
613,0.022411199,0.406760007
614,0.0209915,0.394632995
615,0.019850301,0.384600997
616,0.0187755,0.373943001
617,0.0176211,0.364369005
618,0.0166658,0.356954008
619,0.0160156,0.351606995
620,0.0153389,0.343445987
621,0.0147816,0.338761002
622,0.0142906,0.335092992
623,0.0139191,0.330561012
624,0.0133751,0.327125013
625,0.0128841,0.324658006
626,0.0125922,0.322622001
627,0.0121663,0.322151005
628,0.0119407,0.318284005
629,0.011597,0.315847009
630,0.011199,0.312810004
631,0.0109999,0.310187995
632,0.010655,0.309231013
633,0.0106682,0.304596007
634,0.0104294,0.301557004
635,0.0102967,0.30015099
636,0.0100446,0.297351986
637,0.00985882,0.295219988
638,0.0097792,0.291195005
639,0.00965978,0.287241995
640,0.0095271,0.281617999
641,0.00954036,0.276905
642,0.00930152,0.272338986
643,0.00931479,0.26602301
644,0.00934133,0.260423005
645,0.00934133,0.254664004
646,0.00898307,0.247676
647,0.00912903,0.240868002
648,0.00916883,0.233311996
649,0.00904941,0.226104006
650,0.00903614,0.220691994
651,0,0.212785006
652,0,0.205350995
653,0,0.197868004
654,0,0.192745
655,0,0.183497995
656,0,0.175926
657,0,0.170144007
658,0,0.161388993
659,0,0.156121999
660,0,0.150057003
661,0,0.142842993
662,0,0.138597995
663,0,0.132669002
664,0,0.127367005
665,0,0.122784004
666,0,0.116352998
667,0,0.112167999
668,0,0.106614999
669,0,0.102969997
670,0,0.099265397
671,0,0.096083298
672,0,0.091645703
673,0,0.088056199
674,0,0.084058598
675,0,0.082481898
676,0,0.079350099
677,0,0.077931702
678,0,0.074180901
679,0,0.072872102
680,0,0.0697015
681,0,0.067188203
682,0,0.0646547
683,0,0.063383497
684,0,0.062931202
685,0,0.059594799
686,0,0.058293998
687,0,0.0576034
688,0,0.055547401
689,0,0.054985799
690,0,0.053899799
691,0,0.052753098
692,0,0.051916901
693,0,0.051661599
694,0,0.050613999
695,0,0.049966
696,0,0.047918901
697,0,0.047752701
698,0,0.047175501
699,0,0.046459898
700,0,0.0456836
701,0,0.0443554
702,0,0.043027099
703,0,0.041698899
704,0,0.040370598
705,0,0.039042301
706,0,0.037714101
707,0,0.036385801
708,0,0.035057601
709,0,0.0337293
710,0,0.032400999
711,0,0.031072799
712,0,0.0297445
713,0,0.0284163
714,0,0.027088
715,0,0.025759701
716,0,0.024431501
717,0,0.0231032
718,0,0.021775
719,0,0.020446699
720,0,0.019073701
721,0,0.0177007
722,0,0.0163277
723,0,0.0149547
724,0,0.0135818
725,0,0.0122088
726,0,0.011614
727,0,0.0108358
728,0,0.0101747
729,0,0.00943557
730,0,0.00871593
731,0,0.00799629
732,0,0.00727665
733,0,0.00655702
734,0,0.00583738
735,0,0.00511774
736,0,0.0043981
737,0,0.00421138
738,0,0.00402466
739,0,0.00383794
740,0,0.00365122
741,0,0.0034645
742,0,0.00327779
743,0,0.00309107
744,0,0.00290435
745,0,0.00271763
746,0,0.00254411
747,0,0.00237059
748,0,0.00219707
749,0,0.00202355
750,0,0.00185003
