## Type: dye
## Name: Mitotracker red
Extinction coefficient:
Quantum Yield:
wavelength,absorption,emission
300,0.1355363,0
301,0.1384766,0
302,0.1401568,0
303,0.141417,0
304,0.1435172,0
305,0.1450574,0
306,0.1470176,0
307,0.1506581,0
308,0.1538785,0
309,0.1577989,0
310,0.1635396,0
311,0.1674601,0
312,0.1712405,0
313,0.175161,0
314,0.1767012,0
315,0.1760011,0
316,0.1713806,0
317,0.1653598,0
318,0.1570988,0
319,0.1426771,0
320,0.1304957,0
321,0.1177541,0
322,0.100112,0
323,0.08807056,0
324,0.07742929,0
325,0.06524783,0
326,0.05796696,0
327,0.05152618,0
328,0.04424531,0
329,0.03948474,0
330,0.0358443,0
331,0.03178381,0
332,0.02898348,0
333,0.02674321,0
334,0.02366284,0
335,0.02212265,0
336,0.02128255,0
337,0.0200224,0
338,0.0191823,0
339,0.01932232,0
340,0.01960235,0
341,0.01974237,0
342,0.01974237,0
343,0.02030244,0
344,0.02100252,0
345,0.02184262,0
346,0.02324279,0
347,0.02478297,0
348,0.02604312,0
349,0.02772333,0
350,0.02912349,0
351,0.03066368,0
352,0.03290395,0
353,0.03430412,0
354,0.03556427,0
355,0.03738449,0
356,0.03878465,0
357,0.04046485,0
358,0.04256511,0
359,0.04410529,0
360,0.04606553,0
361,0.04858583,0
362,0.05054606,0
363,0.05264632,0
364,0.05572669,0
365,0.05782694,0
366,0.06006721,0
367,0.06230748,0
368,0.06342761,0
369,0.06440773,0
370,0.06510781,0
371,0.06510781,0
372,0.06468776,0
373,0.0632876,0
374,0.06160739,0
375,0.05992719,0
376,0.05698684,0
377,0.05460655,0
378,0.05236629,0
379,0.04858583,0
380,0.04592551,0
381,0.04340521,0
382,0.03990479,0
383,0.03738449,0
384,0.03514422,0
385,0.0324839,0
386,0.03052366,0
387,0.02856343,0
388,0.02604312,0
389,0.02450294,0
390,0.02310277,0
391,0.02156259,0
392,0.02044245,0
393,0.01946234,0
394,0.0183422,0
395,0.01792215,0
396,0.01764212,0
397,0.0175021,0
398,0.01736208,0
399,0.01722207,0
400,0.01736208,0
401,0.0175021,0
402,0.0175021,0
403,0.01778213,0
404,0.01792215,0
405,0.01806217,0
406,0.01862223,0
407,0.01876225,0
408,0.01904229,0
409,0.01946234,0
410,0.01974237,0
411,0.02016242,0
412,0.02044245,0
413,0.02058247,0
414,0.0208625,0
415,0.02142257,0
416,0.02142257,0
417,0.0217026,0
418,0.02212265,0
419,0.02226267,0
420,0.02240269,0
421,0.02240269,0
422,0.02226267,0
423,0.02212265,0
424,0.02212265,0
425,0.02198264,0
426,0.02184262,0
427,0.02156259,0
428,0.02128255,0
429,0.0208625,0
430,0.02058247,0
431,0.02016242,0
432,0.01974237,0
433,0.0191823,0
434,0.01890227,0
435,0.01876225,0
436,0.01876225,0
437,0.01848222,0
438,0.0183422,0
439,0.0183422,0
440,0.0183422,0
441,0.0183422,0
442,0.01820218,0
443,0.01820218,0
444,0.01806217,0
445,0.01806217,0
446,0.01806217,0
447,0.01778213,0
448,0.01722207,0
449,0.01694203,0
450,0.01680202,0
451,0.016662,0
452,0.01652198,0
453,0.01638197,0
454,0.01624195,0
455,0.01610193,0
456,0.01596192,0
457,0.0158219,0
458,0.01554186,0
459,0.01540185,0
460,0.01512182,0
461,0.0149818,0
462,0.01484178,0
463,0.01470176,0
464,0.01442173,0
465,0.01428171,0
466,0.01428171,0
467,0.01428171,0
468,0.0141417,0
469,0.01428171,0
470,0.01442173,0
471,0.01456175,0
472,0.01484178,0
473,0.0149818,0
474,0.01540185,0
475,0.01596192,0
476,0.01652198,0
477,0.01722207,0
478,0.01848222,0
479,0.01932232,0
480,0.02030244,0
481,0.02184262,0
482,0.02310277,0
483,0.02436292,0
484,0.02618314,0
485,0.02772333,0
486,0.02940353,0
487,0.0316438,0
488,0.03318398,0
489,0.03486418,0
490,0.03738449,0
491,0.03906469,0
492,0.04074489,0
493,0.04312518,0
494,0.04480538,0
495,0.0466256,0
496,0.04900588,0
497,0.05054606,0
498,0.05222627,0
499,0.05460655,0
500,0.05628675,0
501,0.05796696,0
502,0.06048726,0
503,0.06230748,0
504,0.0641277,0
505,0.06678802,0
506,0.06888826,0
507,0.07112854,0
508,0.07462896,0
509,0.07756931,0
510,0.0807897,0
511,0.0858303,0
512,0.0900308,0
513,0.09479137,0
514,0.1022123,0
515,0.108233,0
516,0.1148138,0
517,0.124615,0
518,0.1318958,0
519,0.1395967,0
520,0.1507981,0
521,0.1590591,0
522,0.1677401,0
523,0.1802016,0
524,0.1894427,0
525,0.1985438,0
526,0.2112854,0
527,0.2202464,0
528,0.2290675,0
529,0.2405489,0
530,0.2483898,0
531,0.2555307,0
532,0.2643517,0
533,0.2699524,0
534,0.274713,0
535,0.2801736,0
536,0.283114,0
537,0.2852142,0
538,0.2870344,0
539,0.2874545,0
540,0.2875945,0
541,0.2871745,0
542,0.2866144,0
543,0.2860543,0
544,0.2857743,0
545,0.2857743,0
546,0.2863344,0
547,0.2882946,0
548,0.2908149,0
549,0.2941753,0
550,0.3013162,0
551,0.308177,0
552,0.316718,0
553,0.3311397,0
554,0.3431812,0
555,0.3569028,0
556,0.3783254,0
557,0.3958275,0
558,0.4150098,0
559,0.4445533,0
560,0.4680762,0.0273104
561,0.4932792,0.03160743
562,0.5303836,0.0370854
563,0.5593671,0.04377981
564,0.5897508,0.05268612
565,0.633576,0.06029115
566,0.66648,0.06975537
567,0.700084,0.08098754
568,0.7467096,0.09209393
569,0.7805936,0.1070618
570,0.8136376,0.1241325
571,0.8574629,0.1436415
572,0.8875665,0.1639463
573,0.9154298,0.1875037
574,0.9490339,0.2120868
575,0.9687762,0.2402545
576,0.9837581,0.270351
577,0.9966396,0.3018237
578,1,0.337229
579,0.9983198,0.3791861
580,0.9871185,0.42182
581,0.9726968,0.4647874
582,0.9532344,0.5068338
583,0.9186502,0.5533508
584,0.8875665,0.5981365
585,0.8520023,0.6397123
586,0.7976757,0.6862639
587,0.7549706,0.7291089
588,0.7101653,0.7698895
589,0.6481378,0.8065532
590,0.6043125,0.8463905
591,0.5613274,0.8788129
592,0.5044806,0.9113882
593,0.4648558,0.9316145
594,0.4270512,0.9556228
595,0.3777654,0.9728701
596,0.3441613,0.9877072
597,0.3125175,0.9928863
598,0.2721927,1
599,0.2453094,0.9986795
600,0.2205265,0.9933184
601,0.1898628,0.9859708
602,0.1697004,0.97957
603,0.1512181,0.9634148
604,0.1286754,0.9472868
605,0.1139737,0.9278024
606,0.1008121,0.9030507
607,0.08485019,0.881119
608,0.07476897,0.8560522
609,0.06552786,0.8356976
610,0.05446653,0.8069112
611,0.0474657,0.7775636
612,0.04130496,0.7508653
613,0.03458415,0.7247457
614,0.03010361,0.6928863
615,0.02618314,0.6696169
616,0.0217026,0.6413509
617,0.01876225,0.6151736
618,0.01624195,0.5882475
619,0.01344161,0.5658764
620,0.01176141,0.5412579
621,0.01008121,0.5173606
622,0.008260992,0.4961269
623,0.007140857,0.4733025
624,0.006160739,0.4542019
625,0.005278238,0.4323182
626,0,0.4135091
627,0,0.3969736
628,0,0.3807311
629,0,0.3680841
630,0,0.3553859
631,0,0.3438933
632,0,0.3343645
633,0,0.3216505
634,0,0.3105905
635,0,0.3022445
636,0,0.2961213
637,0,0.2902892
638,0,0.2838912
639,0,0.2768619
640,0,0.2693225
641,0,0.2651576
642,0,0.2597566
643,0,0.2538061
644,0,0.2516992
645,0,0.2492841
646,0,0.2446768
647,0,0.241981
648,0,0.2378591
649,0,0.2366989
650,0,0.2327111
651,0,0.2270329
652,0,0.2239316
653,0,0.2207356
654,0,0.21835
655,0,0.2151801
656,0,0.2103982
657,0,0.2066744
658,0,0.2004816
659,0,0.1966976
660,0,0.1934252
661,0,0.1897171
662,0,0.1860619
663,0,0.1802613
664,0,0.1751829
665,0,0.1694785
666,0,0.165218
667,0,0.161023
668,0,0.1549714
669,0,0.1532493
670,0,0.1474709
671,0,0.1406769
672,0,0.1377729
673,0,0.1323191
674,0,0.1272032
675,0,0.1229037
676,0,0.1174282
677,0,0.1129294
678,0,0.1074396
679,0,0.1043447
680,0,0.09774652
681,0,0.09528698
682,0,0.09037038
683,0,0.08738943
684,0,0.08470891
685,0,0.08155729
686,0,0.0773012
687,0,0.07507844
688,0,0.07349647
689,0,0.07082137
690,0,0.0671661
691,0,0.06640398
692,0,0.06475047
693,0,0.06286068
694,0,0.06070601
695,0,0.05834464
696,0,0.05694567
697,0,0.05525813
698,0,0.0541581
699,0,0.05376347
700,0,0.05042341
701,0,0
702,0,0
703,0,0
704,0,0
705,0,0
706,0,0
707,0,0
708,0,0
709,0,0
710,0,0
711,0,0
712,0,0
713,0,0
714,0,0
715,0,0
716,0,0
717,0,0
718,0,0
719,0,0
720,0,0
721,0,0
722,0,0
723,0,0
724,0,0
725,0,0
726,0,0
727,0,0
728,0,0
729,0,0
730,0,0
731,0,0
732,0,0
733,0,0
734,0,0
735,0,0
736,0,0
737,0,0
738,0,0
739,0,0
740,0,0
741,0,0
742,0,0
743,0,0
744,0,0
745,0,0
746,0,0
747,0,0
748,0,0
749,0,0
750,0,0
751,0,0
752,0,0
753,0,0
754,0,0
755,0,0
756,0,0
757,0,0
758,0,0
759,0,0
760,0,0
761,0,0
762,0,0
763,0,0
764,0,0
765,0,0
766,0,0
767,0,0
768,0,0
769,0,0
770,0,0
771,0,0
772,0,0
773,0,0
774,0,0
775,0,0
776,0,0
777,0,0
778,0,0
779,0,0
780,0,0
781,0,0
782,0,0
783,0,0
784,0,0
785,0,0
786,0,0
787,0,0
788,0,0
789,0,0
790,0,0
791,0,0
792,0,0
793,0,0
794,0,0
795,0,0
796,0,0
797,0,0
798,0,0
799,0,0
800,0,0
801,0,0
802,0,0
803,0,0
804,0,0
805,0,0
806,0,0
807,0,0
808,0,0
809,0,0
810,0,0
811,0,0
812,0,0
813,0,0
814,0,0
815,0,0
816,0,0
817,0,0
818,0,0
819,0,0
820,0,0
821,0,0
822,0,0
823,0,0
824,0,0
825,0,0
826,0,0
827,0,0
828,0,0
829,0,0
830,0,0
831,0,0
832,0,0
833,0,0
834,0,0
835,0,0
836,0,0
837,0,0
838,0,0
839,0,0
840,0,0
841,0,0
842,0,0
843,0,0
844,0,0
845,0,0
846,0,0
847,0,0
848,0,0
849,0,0
850,0,0
851,0,0
852,0,0
853,0,0
854,0,0
855,0,0
856,0,0
857,0,0
858,0,0
859,0,0
860,0,0
861,0,0
862,0,0
863,0,0
864,0,0
865,0,0
866,0,0
867,0,0
868,0,0
869,0,0
870,0,0
871,0,0
872,0,0
873,0,0
874,0,0
875,0,0
876,0,0
877,0,0
878,0,0
879,0,0
880,0,0
881,0,0
882,0,0
883,0,0
884,0,0
885,0,0
886,0,0
887,0,0
888,0,0
889,0,0
890,0,0
891,0,0
892,0,0
893,0,0
894,0,0
895,0,0
896,0,0
897,0,0
898,0,0
899,0,0
900,0,0
901,0,0
902,0,0
903,0,0
904,0,0
905,0,0
906,0,0
907,0,0
908,0,0
909,0,0
910,0,0
911,0,0
912,0,0
913,0,0
914,0,0
915,0,0
916,0,0
917,0,0
918,0,0
919,0,0
920,0,0
921,0,0
922,0,0
923,0,0
924,0,0
925,0,0
926,0,0
927,0,0
928,0,0
929,0,0
930,0,0
931,0,0
932,0,0
933,0,0
934,0,0
935,0,0
936,0,0
937,0,0
938,0,0
939,0,0
940,0,0
941,0,0
942,0,0
943,0,0
944,0,0
945,0,0
946,0,0
947,0,0
948,0,0
949,0,0
950,0,0
951,0,0
952,0,0
953,0,0
954,0,0
955,0,0
956,0,0
957,0,0
958,0,0
959,0,0
960,0,0
961,0,0
962,0,0
963,0,0
964,0,0
965,0,0
966,0,0
967,0,0
968,0,0
969,0,0
970,0,0
971,0,0
972,0,0
973,0,0
974,0,0
975,0,0
976,0,0
977,0,0
978,0,0
979,0,0
980,0,0
981,0,0
982,0,0
983,0,0
984,0,0
985,0,0
986,0,0
987,0,0
988,0,0
989,0,0
990,0,0
991,0,0
992,0,0
993,0,0
994,0,0
995,0,0
996,0,0
997,0,0
998,0,0
999,0,0
