Type: FP
Name: mRFP1
Extinction coefficient: 44000
Quantum Yield: 0.25
wavelength,absorption,emission
492,0.072499998,0
493,0.077600002,0
494,0.083499998,0
495,0.089699998,0
496,0.096100003,0
497,0.101999998,0
498,0.108000003,0
499,0.112999998,0
500,0.116999999,0
501,0.119999997,0
502,0.120999999,0
503,0.122000001,0
504,0.126000002,0
505,0.133000001,0
506,0.138999999,0
507,0.143999994,0
508,0.150999993,0
509,0.157000005,0
510,0.159999996,0
511,0.164000005,0
512,0.170000002,0
513,0.175999999,0
514,0.178000003,0
515,0.181999996,0
516,0.188999996,0
517,0.200000003,0
518,0.209000006,0
519,0.216000006,0
520,0.224000007,0
521,0.231000006,0
522,0.239999995,0
523,0.246999994,0
524,0.259000003,0
525,0.266000003,0
526,0.280999988,0
527,0.289999992,0
528,0.301999986,0
529,0.307000011,0
530,0.319999993,0
531,0.335000008,0
532,0.349999994,0
533,0.360000014,0
534,0.375999987,0
535,0.391000003,0
536,0.40200001,0
537,0.416000009,0
538,0.432000011,0
539,0.442000002,0
540,0.453000009,0
541,0.467999995,0
542,0.48300001,0
543,0.495999992,0
544,0.509000003,0
545,0.51700002,0
546,0.526000023,0
547,0.532999992,0
548,0.541000009,0
549,0.549000025,0
550,0.555000007,0
551,0.560000002,0
552,0.564999998,0
553,0.566999972,0
554,0.57099998,0
555,0.577000022,0
556,0.58099997,0
557,0.583000004,0
558,0.587000012,0
559,0.593999982,0
560,0.600000024,0
561,0.603999972,0
562,0.609000027,0
563,0.61500001,0
564,0.626999974,0
565,0.634000003,0
566,0.648000002,0
567,0.654999971,0
568,0.666000009,0
569,0.680000007,0
570,0.69599998,0
571,0.699000001,0
572,0.703000009,0
573,0.717000008,0
574,0.739000022,0.031399999
575,0.759000003,0.037700001
576,0.779999971,0.0462
577,0.800000012,0.0559
578,0.819999993,0.061099999
579,0.842000008,0.074299999
580,0.862999976,0.094099998
581,0.879999995,0.108999997
582,0.898999989,0.119000003
583,0.921000004,0.129999995
584,0.943000019,0.150000006
585,0.954999983,0.172999993
586,0.963,0.201000005
587,0.968999982,0.233999997
588,0.977999985,0.273999989
589,0.985000014,0.307999998
590,0.99000001,0.338999987
591,0.989000022,0.372000009
592,0.984000027,0.414999992
593,0.975000024,0.451000005
594,0.958000004,0.488999993
595,0.944000006,0.531000018
596,0.934000015,0.574999988
597,0.921999991,0.614000022
598,0.866999984,0.654999971
599,0.791000009,0.689999998
600,0.73299998,0.728999972
601,0.704999983,0.763999999
602,0.672999978,0.800999999
603,0.633000016,0.832000017
604,0.601000011,0.874000013
605,0.56400001,0.89200002
606,0.500999987,0.907000005
607,0.432999998,0.941999972
608,0.393999994,0.958000004
609,0.389999986,0.967999995
610,0.389999986,0.989000022
611,0.363000005,0.992999971
612,0.314999998,0.994000018
613,0.272000015,0.992999971
614,0.246999994,0.986999989
615,0.230000004,0.978999972
616,0.203999996,0.973999977
617,0.173999995,0.968999982
618,0.145999998,0.95599997
619,0.126000002,0.947000027
620,0.112999998,0.93599999
621,0.104000002,0.915000021
622,0.088600002,0.893999994
623,0.072800003,0.873000026
624,0.060400002,0.852999985
625,0.0526,0.833000004
626,0.044599999,0.81400001
627,0.039999999,0.795000017
628,0,0.773000002
629,0,0.758000016
630,0,0.748000026
631,0,0.73299998
632,0,0.717999995
633,0,0.708000004
634,0,0.694999993
635,0,0.675999999
636,0,0.666000009
637,0,0.653999984
638,0,0.634000003
639,0,0.620000005
640,0,0.610000014
641,0,0.593999982
642,0,0.578000009
643,0,0.57099998
644,0,0.565999985
645,0,0.555000007
646,0,0.54400003
647,0,0.533999979
648,0,0.524999976
649,0,0.519999981
650,0,0.50999999
651,0,0.499000013
652,0,0.490999997
653,0,0.486999989
654,0,0.481999993
655,0,0.47299999
656,0,0.465000004
657,0,0.453000009
658,0,0.448000014
659,0,0.441000015
660,0,0.433999985
661,0,0.426999986
662,0,0.421999991
663,0,0.416999996
664,0,0.412999988
665,0,0.407999992
666,0,0.404000014
667,0,0.395000011
668,0,0.388999999
669,0,0.379999995
670,0,0.374000013
671,0,0.368999988
672,0,0.361999989
673,0,0.354000002
674,0,0.342999995
675,0,0.337000012
676,0,0.333000004
677,0,0.326000005
678,0,0.317999989
679,0,0.312000006
680,0,0.308999985
681,0,0.303000003
682,0,0.294999987
683,0,0.287999988
684,0,0.280999988
685,0,0.273000002
686,0,0.26699999
687,0,0.261000007
688,0,0.254000008
689,0,0.246999994
690,0,0.238999993
691,0,0.232999995
692,0,0.228
693,0,0.226999998
694,0,0.218999997
695,0,0.211999997
696,0,0.206
697,0,0.199000001
698,0,0.192000002
699,0,0.188999996
700,0,0.182999998
701,0,0.178000003
702,0,0.173999995
703,0,0.169
704,0,0.162
705,0,0.159999996
706,0,0.159999996
707,0,0.155000001
708,0,0.150000006
709,0,0.148000002
710,0,0.147
711,0,0.141000003
712,0,0.135000005
713,0,0.134000003
714,0,0.129999995
715,0,0.123999998
716,0,0.120999999
717,0,0.120999999
718,0,0.115999997
719,0,0.112000003
720,0,0.108999997
721,0,0.109999999
722,0,0.108000003
723,0,0.103
724,0,0.099399999
725,0,0.097999997
726,0,0.096199997
727,0,0.093699999
728,0,0.092600003
729,0,0.092200004
730,0,0.086999997
731,0,0.082599998
732,0,0.081200004
733,0,0.082400002
734,0,0.079099998
735,0,0.076700002
736,0,0.076300003
737,0,0.076800004
738,0,0.074100003
739,0,0.071099997
740,0,0.069499999
741,0,0.07
742,0,0.071500003
743,0,0.069799997
744,0,0.066500001
745,0,0.063699998
746,0,0.062199999
747,0,0.0601
748,0,0.0592
749,0,0.0581
750,0,0.052999999
751,0,0.0504
