## Type: filter
## Name: AT350/50x
wavelength,transmission
300.00,9.9999999392253E-9
301.00,0.00050598097732291
302.00,0.0012260300572962
303.00,0.0020350099075586
304.00,0.0033238800242543
305.00,0.0058211199939251
306.00,0.0097815897315741
307.00,0.014316899701953
308.00,0.019100999459624
309.00,0.025295000523329
310.00,0.033316299319267
311.00,0.042695198208094
312.00,0.053862798959017
313.00,0.067936800420284
314.00,0.083436198532581
315.00,0.096423298120499
316.00,0.11281699687243
317.00,0.13003699481487
318.00,0.14941099286079
319.00,0.1662800014019
320.00,0.18745900690556
321.00,0.205157995224
322.00,0.22541299462318
323.00,0.24118700623512
324.00,0.26031199097633
325.00,0.28350800275803
326.00,0.30046099424362
327.00,0.31986200809479
328.00,0.33722099661827
329.00,0.35113999247551
330.00,0.36148500442505
331.00,0.37316501140594
332.00,0.39222699403763
333.00,0.40904098749161
334.00,0.42284101247787
335.00,0.44118100404739
336.00,0.45437800884247
337.00,0.46506699919701
338.00,0.47100400924683
339.00,0.48311901092529
340.00,0.49619799852371
341.00,0.50344997644424
342.00,0.51218700408936
343.00,0.52198499441147
344.00,0.52532202005386
345.00,0.53672897815704
346.00,0.53940802812576
347.00,0.54788702726364
348.00,0.55216097831726
349.00,0.55047798156738
350.00,0.55350601673126
351.00,0.55563002824783
352.00,0.55727499723434
353.00,0.55682998895645
354.00,0.55563801527023
355.00,0.55900001525879
356.00,0.55411797761917
357.00,0.56016802787781
358.00,0.55471301078796
359.00,0.55102902650833
360.00,0.54795300960541
361.00,0.54143297672272
362.00,0.53416901826859
363.00,0.52476000785828
364.00,0.51478999853134
365.00,0.50940501689911
366.00,0.49975800514221
367.00,0.4830020070076
368.00,0.46762400865555
369.00,0.4487409889698
370.00,0.4317019879818
371.00,0.40904399752617
372.00,0.39026799798012
373.00,0.3687059879303
374.00,0.3410139977932
375.00,0.31179600954056
376.00,0.28097900748253
377.00,0.25248500704765
378.00,0.22460499405861
379.00,0.19440999627113
380.00,0.16559299826622
381.00,0.13713799417019
382.00,0.11253400146961
383.00,0.089545898139477
384.00,0.069484703242779
385.00,0.052473299205303
386.00,0.037781801074743
387.00,0.026479000225663
388.00,0.01772990077734
389.00,0.011504899710417
390.00,0.007183900102973
391.00,0.0042901299893856
392.00,0.0024302899837494
393.00,0.0013160499511287
394.00,0.00066465797135606
395.00,0.00032356200972572
396.00,0.00015105599595699
397.00,6.5962900407612E-5
398.00,2.625630077091E-5
399.00,1.0975700206473E-5
400.00,4.1706098272698E-6
401.00,1.4017299463376E-6
402.00,4.0503999798602E-7
403.00,8.8248796714652E-8
404.00,9.9999999392253E-9
405.00,1.1480000239317E-7
406.00,1.1405499833472E-7
407.00,9.9999999392253E-9
408.00,6.2789098365101E-8
409.00,5.0064901557789E-8
410.00,5.414119819136E-9
411.00,4.736480008205E-8
412.00,8.9890903609557E-9
413.00,8.9062801578166E-8
414.00,9.9999999392253E-9
415.00,1.189689982084E-7
416.00,9.9999999392253E-9
417.00,9.9999999392253E-9
418.00,9.9999999392253E-9
419.00,9.9999999392253E-9
420.00,9.9999999392253E-9
421.00,9.9999999392253E-9
422.00,9.9999999392253E-9
423.00,9.9999999392253E-9
424.00,9.9999999392253E-9
425.00,9.9999999392253E-9
426.00,9.9999999392253E-9
427.00,9.9999999392253E-9
428.00,9.9999999392253E-9
429.00,9.9999999392253E-9
430.00,9.9999999392253E-9
431.00,9.9999999392253E-9
432.00,4.5153601746506E-8
433.00,9.9999999392253E-9
434.00,9.9999999392253E-9
435.00,9.9999999392253E-9
436.00,9.9999999392253E-9
437.00,9.9999999392253E-9
438.00,9.9999999392253E-9
439.00,9.9999999392253E-9
440.00,9.9999999392253E-9
441.00,9.9999999392253E-9
442.00,9.9999999392253E-9
443.00,9.9999999392253E-9
444.00,9.9999999392253E-9
445.00,9.9999999392253E-9
446.00,9.9999999392253E-9
447.00,9.9999999392253E-9
448.00,1.5183399426633E-8
449.00,9.9999999392253E-9
450.00,9.9999999392253E-9
451.00,9.9999999392253E-9
452.00,9.9999999392253E-9
453.00,9.9999999392253E-9
454.00,9.9999999392253E-9
455.00,9.9999999392253E-9
456.00,9.9999999392253E-9
457.00,9.9999999392253E-9
458.00,9.9999999392253E-9
459.00,5.3409698885787E-9
460.00,9.9999999392253E-9
461.00,9.9999999392253E-9
462.00,9.9999999392253E-9
463.00,9.9999999392253E-9
464.00,9.9999999392253E-9
465.00,9.9999999392253E-9
466.00,9.9999999392253E-9
467.00,9.9999999392253E-9
468.00,9.9999999392253E-9
469.00,9.9999999392253E-9
470.00,9.9999999392253E-9
471.00,9.9999999392253E-9
472.00,9.9999999392253E-9
473.00,9.9999999392253E-9
474.00,9.9999999392253E-9
475.00,9.9999999392253E-9
476.00,9.9999999392253E-9
477.00,9.9999999392253E-9
478.00,9.9999999392253E-9
479.00,9.9999999392253E-9
480.00,9.9999999392253E-9
481.00,9.9999999392253E-9
482.00,9.9999999392253E-9
483.00,9.9999999392253E-9
484.00,9.9999999392253E-9
485.00,9.9999999392253E-9
486.00,9.9999999392253E-9
487.00,9.9999999392253E-9
488.00,9.9999999392253E-9
489.00,9.9999999392253E-9
490.00,9.9999999392253E-9
491.00,9.9999999392253E-9
492.00,9.9999999392253E-9
493.00,9.9999999392253E-9
494.00,9.9999999392253E-9
495.00,9.9999999392253E-9
496.00,9.9999999392253E-9
497.00,9.9999999392253E-9
498.00,9.9999999392253E-9
499.00,9.9999999392253E-9
500.00,9.9999999392253E-9
501.00,9.9999999392253E-9
502.00,9.9999999392253E-9
503.00,9.9999999392253E-9
504.00,9.9999999392253E-9
505.00,9.9999999392253E-9
506.00,9.9999999392253E-9
507.00,9.9999999392253E-9
508.00,9.9999999392253E-9
509.00,9.9999999392253E-9
510.00,9.9999999392253E-9
511.00,9.9999999392253E-9
512.00,9.9999999392253E-9
513.00,9.9999999392253E-9
514.00,9.9999999392253E-9
515.00,9.9999999392253E-9
516.00,9.9999999392253E-9
517.00,9.9999999392253E-9
518.00,9.9999999392253E-9
519.00,9.9999999392253E-9
520.00,9.9999999392253E-9
521.00,9.9999999392253E-9
522.00,9.9999999392253E-9
523.00,9.9999999392253E-9
524.00,9.9999999392253E-9
525.00,9.9999999392253E-9
526.00,9.9999999392253E-9
527.00,9.9999999392253E-9
528.00,9.9999999392253E-9
529.00,9.9999999392253E-9
530.00,9.9999999392253E-9
531.00,9.9999999392253E-9
532.00,9.9999999392253E-9
533.00,9.9999999392253E-9
534.00,9.9999999392253E-9
535.00,9.9999999392253E-9
536.00,9.9999999392253E-9
537.00,9.9999999392253E-9
538.00,9.9999999392253E-9
539.00,9.9999999392253E-9
540.00,9.9999999392253E-9
541.00,9.9999999392253E-9
542.00,9.9999999392253E-9
543.00,9.9999999392253E-9
544.00,9.9999999392253E-9
545.00,9.9999999392253E-9
546.00,9.9999999392253E-9
547.00,9.9999999392253E-9
548.00,9.9999999392253E-9
549.00,9.9999999392253E-9
550.00,9.9999999392253E-9
551.00,9.9999999392253E-9
552.00,9.9999999392253E-9
553.00,9.9999999392253E-9
554.00,9.9999999392253E-9
555.00,9.9999999392253E-9
556.00,9.9999999392253E-9
557.00,9.9999999392253E-9
558.00,9.9999999392253E-9
559.00,9.9999999392253E-9
560.00,1.7305400445977E-9
561.00,9.9999999392253E-9
562.00,9.9999999392253E-9
563.00,9.9999999392253E-9
564.00,9.9999999392253E-9
565.00,9.9999999392253E-9
566.00,9.9999999392253E-9
567.00,9.9999999392253E-9
568.00,9.9999999392253E-9
569.00,9.9999999392253E-9
570.00,9.9999999392253E-9
571.00,9.9999999392253E-9
572.00,9.9999999392253E-9
573.00,9.9999999392253E-9
574.00,9.9999999392253E-9
575.00,9.9999999392253E-9
576.00,9.9999999392253E-9
577.00,9.9999999392253E-9
578.00,9.9999999392253E-9
579.00,9.9999999392253E-9
580.00,9.9999999392253E-9
581.00,9.9999999392253E-9
582.00,9.9999999392253E-9
583.00,9.9999999392253E-9
584.00,9.9999999392253E-9
585.00,9.9999999392253E-9
586.00,9.9999999392253E-9
587.00,9.9999999392253E-9
588.00,9.9999999392253E-9
589.00,9.9999999392253E-9
590.00,9.9999999392253E-9
591.00,9.9999999392253E-9
592.00,9.9999999392253E-9
593.00,9.9999999392253E-9
594.00,9.9999999392253E-9
595.00,9.9999999392253E-9
596.00,9.9999999392253E-9
597.00,9.9999999392253E-9
598.00,9.9999999392253E-9
599.00,9.9999999392253E-9
600.00,9.9999999392253E-9
601.00,9.9999999392253E-9
602.00,9.9999999392253E-9
603.00,9.9999999392253E-9
604.00,9.9999999392253E-9
605.00,9.9999999392253E-9
606.00,9.9999999392253E-9
607.00,9.9999999392253E-9
608.00,9.9999999392253E-9
609.00,9.9999999392253E-9
610.00,9.9999999392253E-9
611.00,9.9999999392253E-9
612.00,9.9999999392253E-9
613.00,9.9999999392253E-9
614.00,9.9999999392253E-9
615.00,9.9999999392253E-9
616.00,9.9999999392253E-9
617.00,9.9999999392253E-9
618.00,9.9999999392253E-9
619.00,9.9999999392253E-9
620.00,9.9999999392253E-9
621.00,9.9999999392253E-9
622.00,9.9999999392253E-9
623.00,9.9999999392253E-9
624.00,9.9999999392253E-9
625.00,9.9999999392253E-9
626.00,9.9999999392253E-9
627.00,9.9999999392253E-9
628.00,9.9999999392253E-9
629.00,9.9999999392253E-9
630.00,9.9999999392253E-9
631.00,9.9999999392253E-9
632.00,9.9999999392253E-9
633.00,9.9999999392253E-9
634.00,9.9999999392253E-9
635.00,9.9999999392253E-9
636.00,9.9999999392253E-9
637.00,9.9999999392253E-9
638.00,9.9999999392253E-9
639.00,9.9999999392253E-9
640.00,9.9999999392253E-9
641.00,9.9999999392253E-9
642.00,9.9999999392253E-9
643.00,9.9999999392253E-9
644.00,9.9999999392253E-9
645.00,9.9999999392253E-9
646.00,9.9999999392253E-9
647.00,9.9999999392253E-9
648.00,9.9999999392253E-9
649.00,9.9999999392253E-9
650.00,9.9999999392253E-9
651.00,9.9999999392253E-9
652.00,9.9999999392253E-9
653.00,9.9999999392253E-9
654.00,9.9999999392253E-9
655.00,9.9999999392253E-9
656.00,9.9999999392253E-9
657.00,9.9999999392253E-9
658.00,9.9999999392253E-9
659.00,9.9999999392253E-9
660.00,9.9999999392253E-9
661.00,9.9999999392253E-9
662.00,9.9999999392253E-9
663.00,9.9999999392253E-9
664.00,9.9999999392253E-9
665.00,9.9999999392253E-9
666.00,9.9999999392253E-9
667.00,9.9999999392253E-9
668.00,9.9999999392253E-9
669.00,9.9999999392253E-9
670.00,9.9999999392253E-9
671.00,1.2261200055264E-8
672.00,9.9999999392253E-9
673.00,9.9999999392253E-9
674.00,9.9999999392253E-9
675.00,9.9999999392253E-9
676.00,9.9999999392253E-9
677.00,9.9999999392253E-9
678.00,9.9999999392253E-9
679.00,9.9999999392253E-9
680.00,9.9999999392253E-9
681.00,1.9902100234503E-7
682.00,9.4006999518115E-8
683.00,2.7758599685512E-7
684.00,4.8772102445582E-7
685.00,7.9644001971246E-7
686.00,8.9986798457176E-7
687.00,1.2541199794214E-6
688.00,1.3983300277687E-6
689.00,2.0107700038352E-6
690.00,2.6664099550544E-6
691.00,3.2805799037305E-6
692.00,3.7387499105535E-6
693.00,3.9675001062278E-6
694.00,4.392879873194E-6
695.00,4.6041100176808E-6
696.00,5.018970114179E-6
697.00,5.3980102165951E-6
698.00,6.3836400840955E-6
699.00,5.873700047232E-6
700.00,6.1753498812323E-6
701.00,6.6120501287514E-6
702.00,6.7367700467003E-6
703.00,6.9062798502273E-6
704.00,7.3534401963116E-6
705.00,7.4787299126911E-6
706.00,6.944900178496E-6
707.00,7.1029398895917E-6
708.00,7.2841198743845E-6
709.00,7.3448100010864E-6
710.00,7.3344999691471E-6
711.00,7.0993501140038E-6
712.00,7.0905898610363E-6
713.00,6.6552302087075E-6
714.00,6.5158201323356E-6
715.00,7.0567198235949E-6
716.00,6.7418200160319E-6
717.00,6.8060599005548E-6
718.00,6.0079200920882E-6
719.00,6.0090001170465E-6
720.00,5.934979981248E-6
721.00,5.4286801969283E-6
722.00,4.8840802264749E-6
723.00,4.3795098463306E-6
724.00,4.411299869389E-6
725.00,4.1590401451685E-6
726.00,3.7109900858923E-6
727.00,3.4648899145395E-6
728.00,3.202869947927E-6
729.00,3.3425399124098E-6
730.00,3.4256900107721E-6
731.00,2.745139909166E-6
732.00,2.5463200472586E-6
733.00,2.579170086392E-6
734.00,2.3460299871658E-6
735.00,2.5742999696377E-6
736.00,2.225549906143E-6
737.00,1.8791999991663E-6
738.00,1.7815300452639E-6
739.00,2.2347799131239E-6
740.00,1.9296799109725E-6
741.00,1.9470001006994E-6
742.00,1.6828799971336E-6
743.00,1.6078899989225E-6
744.00,1.2620099596461E-6
745.00,1.3508499705495E-6
746.00,1.4547199498338E-6
747.00,1.4224999631551E-6
748.00,1.4550900004906E-6
749.00,1.1471199741209E-6
750.00,8.2048097738152E-7
751.00,9.8791804248322E-7
752.00,1.0179099945162E-6
753.00,1.0169200095334E-6
754.00,8.3670698813876E-7
755.00,6.2719198012928E-7
756.00,1.045529984367E-6
757.00,8.2912998777829E-7
758.00,6.4676999045332E-7
759.00,5.6923897773231E-7
760.00,8.3982399701199E-7
761.00,6.7909098788732E-7
762.00,6.0994398154435E-7
763.00,9.0545802322595E-7
764.00,4.2902098584818E-7
765.00,5.2417897222767E-7
766.00,6.3739702227394E-7
767.00,3.8165700289028E-7
768.00,2.0012400625546E-7
769.00,3.8938799207244E-7
770.00,6.9226297227942E-7
771.00,6.4264997945429E-7
772.00,9.9999999392253E-9
773.00,6.8684602183566E-7
774.00,5.3216302831061E-7
775.00,1.8645299348918E-7
776.00,7.6200302601137E-7
777.00,3.3668800369924E-7
778.00,1.4843099904738E-7
779.00,3.5420600852376E-7
780.00,9.9999999392253E-9
781.00,4.2447800296941E-7
782.00,2.6058799562634E-7
783.00,6.4393401544294E-7
784.00,3.7989801171534E-7
785.00,3.1045900072968E-7
786.00,4.6673000042574E-7
787.00,3.4464400755496E-7
788.00,1.6817600112518E-7
789.00,9.5155701274052E-7
790.00,6.5154000594703E-7
791.00,9.9999999392253E-9
792.00,1.0298599590897E-6
793.00,9.9999999392253E-9
794.00,1.813650030158E-8
795.00,5.9715898714785E-7
796.00,6.9993302531657E-7
797.00,1.2176999462099E-6
798.00,4.7682900117252E-7
799.00,8.6338798155339E-7
800.00,9.9999999392253E-9
801.00,6.8914403072995E-8
802.00,9.9999999392253E-9
803.00,9.9999999392253E-9
804.00,9.9999999392253E-9
805.00,2.7852399853145E-6
806.00,6.9984901074349E-7
807.00,9.9999999392253E-9
808.00,9.9999999392253E-9
809.00,2.0564100111642E-7
810.00,9.9999999392253E-9
811.00,9.9999999392253E-9
812.00,1.312820018029E-6
813.00,1.953769924512E-6
814.00,8.6543002453254E-7
815.00,9.9999999392253E-9
816.00,1.1080500144089E-6
817.00,8.602499974586E-7
818.00,9.9999999392253E-9
819.00,8.2805399870267E-7
820.00,8.0982897543436E-7
821.00,1.1983800050075E-6
822.00,4.4882298766424E-7
823.00,9.9999999392253E-9
824.00,1.4260899661167E-7
825.00,9.9999999392253E-9
826.00,2.846979896276E-6
827.00,1.7022000520228E-6
828.00,3.9619299059268E-6
829.00,1.8878999981098E-6
830.00,5.927130132477E-6
831.00,5.1341298785701E-6
832.00,2.1107000520715E-6
833.00,3.8455400499515E-6
834.00,2.8232600470801E-6
835.00,4.9679902076605E-6
836.00,8.3359200289124E-6
837.00,8.3858403741033E-6
838.00,8.3090599218849E-6
839.00,1.0392899639555E-5
840.00,1.1036599971703E-5
841.00,1.063570016413E-5
842.00,1.3174900232116E-5
843.00,1.2943300134793E-5
844.00,1.060470003722E-5
845.00,8.9131499407813E-6
846.00,1.039450035023E-5
847.00,8.1087800936075E-6
848.00,8.604600225226E-6
849.00,6.764879799448E-6
850.00,5.7982701946457E-6
851.00,5.1487800192263E-6
852.00,6.5126200752275E-6
853.00,5.6206699809991E-6
854.00,2.1499399736058E-6
855.00,2.2563799575437E-6
856.00,3.7088400404173E-6
857.00,2.3233699266711E-6
858.00,5.2671498451673E-6
859.00,2.9965399335197E-6
860.00,6.1973200899956E-6
861.00,1.6657500054862E-6
862.00,1.4251600077841E-6
863.00,3.3537498893565E-6
864.00,2.5654198907432E-6
865.00,3.3306500313302E-7
866.00,1.6152900172983E-7
867.00,2.3456500457542E-6
868.00,1.7864599612949E-6
869.00,3.561309995348E-6
870.00,4.1956400309573E-6
871.00,2.8939200547029E-6
872.00,1.248660055353E-6
873.00,3.8796401895524E-6
874.00,3.8240800677158E-6
875.00,3.39454004461E-6
876.00,3.5406899314694E-6
877.00,3.7049098864372E-6
878.00,5.3521698646364E-6
879.00,9.9999999392253E-9
880.00,3.327500053274E-6
881.00,3.6395699680725E-6
882.00,3.0192900339898E-6
883.00,2.3763500394125E-6
884.00,7.4983397269079E-8
885.00,3.4979200336238E-6
886.00,1.565520051372E-7
887.00,2.6878999506152E-6
888.00,3.2357600048272E-6
889.00,6.6377202756485E-7
890.00,6.9739797936563E-7
891.00,4.9710502025846E-6
892.00,1.0475799854248E-6
893.00,7.2134298534365E-7
894.00,2.6673099000618E-6
895.00,2.3607999537489E-6
896.00,2.3319801130128E-6
897.00,2.0673001017713E-6
898.00,9.9999999392253E-9
899.00,8.5158200135993E-7
900.00,2.9182099297032E-6
901.00,1.2617799711734E-6
902.00,2.1230700895103E-6
903.00,1.6996300473693E-6
904.00,1.7037000361597E-6
905.00,1.7016200217768E-6
906.00,5.4711999837309E-6
907.00,1.2146000472057E-6
908.00,2.7814201075671E-6
909.00,8.5579597453034E-7
910.00,3.1449699235964E-6
911.00,4.1938101276173E-6
912.00,4.0022000575846E-6
913.00,1.8521900528867E-6
914.00,4.3622699195112E-6
915.00,4.8000201786635E-6
916.00,2.4269900222862E-6
917.00,8.7991702457657E-6
918.00,3.6327598991193E-6
919.00,7.4095701165788E-6
920.00,5.4912097766646E-6
921.00,3.7327399695641E-6
922.00,5.4093297876534E-6
923.00,6.6263401095057E-6
924.00,5.0543899305922E-6
925.00,7.9734600149095E-6
926.00,3.7455599795067E-6
927.00,5.2119899009995E-6
928.00,2.7032599518861E-6
929.00,5.133989816386E-6
930.00,2.8418000965758E-6
931.00,5.3676399147662E-6
932.00,3.4690399388637E-6
933.00,4.5018400669505E-6
934.00,5.9017302191933E-6
935.00,1.5722199577795E-6
936.00,4.1567200241843E-6
937.00,3.6141800592304E-6
938.00,4.1411899474042E-6
939.00,3.3271001029789E-6
940.00,1.3869999593297E-9
941.00,2.3841600977903E-6
942.00,2.38271991293E-6
943.00,9.9999999392253E-9
944.00,1.0130900136573E-6
945.00,1.1836100384244E-6
946.00,9.9999999392253E-9
947.00,9.9999999392253E-9
948.00,9.9999999392253E-9
949.00,1.2665100257436E-7
950.00,1.5261199450833E-6
951.00,8.3760397728838E-7
952.00,9.9999999392253E-9
953.00,4.3577199448919E-7
954.00,9.6161897999991E-7
955.00,2.7240099953474E-8
956.00,9.7131203347089E-7
957.00,9.9999999392253E-9
958.00,9.9999999392253E-9
959.00,2.0359500467748E-6
960.00,1.7603699689062E-6
961.00,4.0563500078861E-6
962.00,9.9999999392253E-9
963.00,2.0289398889872E-6
964.00,1.2014399999316E-6
965.00,3.4755200886138E-6
966.00,1.4216200270312E-6
967.00,9.9999999392253E-9
968.00,4.190900199319E-6
969.00,8.982780173028E-7
970.00,5.0650401135499E-6
971.00,1.6174700476768E-6
972.00,3.9743699744577E-6
973.00,2.2204399101611E-6
974.00,1.4522599940392E-6
975.00,3.9310798456427E-6
976.00,3.2811299206514E-6
977.00,4.3121399357915E-6
978.00,2.2594799702347E-6
979.00,4.039759915031E-6
980.00,4.4635398808168E-6
981.00,4.953729785484E-6
982.00,6.7117198341293E-6
983.00,7.4398199103598E-6
984.00,8.0952695498127E-6
985.00,7.032880148472E-6
986.00,9.1841602625209E-6
987.00,9.6043404482771E-6
988.00,1.0034799743153E-5
989.00,7.8566299634986E-6
990.00,1.1255199751758E-5
991.00,8.6322397692129E-6
992.00,8.0186900959234E-6
993.00,8.0541203715256E-6
994.00,1.0487599865883E-5
995.00,9.5009399956325E-6
996.00,9.564890206093E-6
997.00,6.3651100390416E-6
998.00,8.4984803834232E-6
999.00,9.1345900727902E-6
1000.00,8.2377000580891E-6
1001.00,7.240219929372E-6
1002.00,8.7046901171561E-6
1003.00,5.3218500397634E-6
1004.00,5.8080199778487E-6
1005.00,6.871419827803E-6
1006.00,7.7389104262693E-6
1007.00,6.5467402237118E-6
1008.00,6.359040071402E-6
1009.00,7.3407900345046E-6
1010.00,5.2560599215212E-6
1011.00,4.6971299525467E-6
1012.00,5.0864400691353E-6
1013.00,7.6874503065483E-6
1014.00,4.5512601900555E-6
1015.00,6.6880497797683E-6
1016.00,6.269860023167E-6
1017.00,5.3147600738157E-6
1018.00,2.1858500076632E-6
1019.00,4.5077399590809E-6
1020.00,3.9845799619798E-6
1021.00,3.8559701351915E-6
1022.00,7.7324302765192E-6
1023.00,4.0905601963459E-6
1024.00,6.4307700995414E-6
1025.00,5.19722016179E-6
1026.00,5.782439984614E-6
1027.00,3.6412300232769E-6
1028.00,4.5795500227541E-6
1029.00,5.5346499721054E-6
1030.00,6.7588998717838E-6
1031.00,2.6941199848807E-6
1032.00,2.5877000098262E-6
1033.00,6.3390198192792E-6
1034.00,4.125390205445E-6
1035.00,6.8835202000628E-6
1036.00,3.6569999792846E-6
1037.00,5.1670699576789E-6
1038.00,5.3901799219602E-6
1039.00,3.1992399271985E-6
1040.00,5.426849838841E-6
1041.00,5.8575501498126E-6
1042.00,5.3078802011441E-6
1043.00,5.1601600716822E-6
