## Type: filter
## Name: Semrock FF01-520/35 Diamond CryoSIM
wavelength,transmission
270.0,2.9833e-06
270.2,3.1675e-06
270.4,3.3631e-06
270.6,3.5708e-06
270.8,3.7912e-06
271.0,4.0253e-06
271.2,4.2739e-06
271.4,4.5377e-06
271.6,4.8179e-06
271.8,5.1154e-06
272.0,5.4313e-06
272.2,5.7666e-06
272.4,6.1227e-06
272.6,6.5007e-06
272.8,6.5004e-06
273.0,6.2557e-06
273.2,6.0202e-06
273.4,5.7935e-06
273.6,5.5754e-06
273.8,5.3655e-06
274.0,5.1635e-06
274.2,4.9691e-06
274.4,4.782e-06
274.6,4.602e-06
274.8,4.4287e-06
275.0,4.262e-06
275.2,4.6047e-06
275.4,4.975e-06
275.6,5.3751e-06
275.8,5.8074e-06
276.0,6.2744e-06
276.2,6.779e-06
276.4,7.3242e-06
276.6,7.9132e-06
276.8,8.5495e-06
277.0,9.2371e-06
277.2,9.98e-06
277.4,1.0783e-05
277.6,1.165e-05
277.8,1.0889e-05
278.0,9.5516e-06
278.2,8.3783e-06
278.4,7.3491e-06
278.6,6.4463e-06
278.8,5.6544e-06
279.0,4.9598e-06
279.2,4.3505e-06
279.4,3.8161e-06
279.6,3.3473e-06
279.8,2.9361e-06
280.0,2.5755e-06
280.2,2.2591e-06
280.4,1.9816e-06
280.6,1.7382e-06
280.8,1.5246e-06
281.0,1.3373e-06
281.2,1.1731e-06
281.4,1.029e-06
281.6,9.0256e-07
281.8,8.6817e-07
282.0,8.5336e-07
282.2,8.3879e-07
282.4,8.2447e-07
282.6,8.104e-07
282.8,7.9657e-07
283.0,7.8297e-07
283.2,7.6961e-07
283.4,7.5647e-07
283.6,7.4356e-07
283.8,7.3087e-07
284.0,7.184e-07
284.2,7.0613e-07
284.4,6.9408e-07
284.6,6.8224e-07
284.8,6.7059e-07
285.0,6.5915e-07
285.2,6.4789e-07
285.4,6.3684e-07
285.6,6.2597e-07
285.8,6.1535e-07
286.0,6.0492e-07
286.2,5.9467e-07
286.4,5.8459e-07
286.6,5.7468e-07
286.8,5.6494e-07
287.0,5.5537e-07
287.2,5.4595e-07
287.4,5.367e-07
287.6,5.276e-07
287.8,5.1866e-07
288.0,5.0987e-07
288.2,5.0123e-07
288.4,4.9273e-07
288.6,4.8438e-07
288.8,4.7617e-07
289.0,4.681e-07
289.2,4.6016e-07
289.4,4.5237e-07
289.6,4.462e-07
289.8,4.6204e-07
290.0,4.7845e-07
290.2,4.9543e-07
290.4,5.1302e-07
290.6,5.3124e-07
290.8,5.501e-07
291.0,5.6963e-07
291.2,5.8985e-07
291.4,6.1079e-07
291.6,6.3248e-07
291.8,6.5493e-07
292.0,6.7818e-07
292.2,7.0226e-07
292.4,7.2719e-07
292.6,7.5301e-07
292.8,7.7974e-07
293.0,8.0742e-07
293.2,8.3609e-07
293.4,8.6577e-07
293.6,8.6997e-07
293.8,7.7801e-07
294.0,6.9576e-07
294.2,6.2222e-07
294.4,5.5644e-07
294.6,4.9762e-07
294.8,4.4502e-07
295.0,3.9798e-07
295.2,2.513e-07
295.4,1.5868e-07
295.6,1.2101e-07
295.8,1.2639e-07
296.0,1.3201e-07
296.2,1.3788e-07
296.4,1.44e-07
296.6,1.5041e-07
296.8,1.5709e-07
297.0,1.6407e-07
297.2,1.7137e-07
297.4,1.7899e-07
297.6,1.8694e-07
297.8,1.9525e-07
298.0,2.0393e-07
298.2,2.13e-07
298.4,2.2246e-07
298.6,2.3235e-07
298.8,2.4268e-07
299.0,2.5347e-07
299.2,2.6474e-07
299.4,2.7651e-07
299.6,2.8734e-07
299.8,2.8376e-07
300.0,2.8022e-07
300.2,2.7673e-07
300.4,2.7328e-07
300.6,2.6987e-07
300.8,2.6651e-07
301.0,2.6318e-07
301.2,2.599e-07
301.4,2.5666e-07
301.6,2.5346e-07
301.8,2.503e-07
302.0,2.4718e-07
302.2,2.441e-07
302.4,2.4106e-07
302.6,2.3805e-07
302.8,2.3508e-07
303.0,2.3215e-07
303.2,2.2926e-07
303.4,2.264e-07
303.6,2.2358e-07
303.8,2.5643e-07
304.0,3.0461e-07
304.2,3.6185e-07
304.4,4.2985e-07
304.6,5.1062e-07
304.8,6.0657e-07
305.0,7.2055e-07
305.2,6.7058e-07
305.4,6.2408e-07
305.6,5.808e-07
305.8,5.4052e-07
306.0,5.0304e-07
306.2,4.6815e-07
306.4,4.3569e-07
306.6,4.0547e-07
306.8,3.7548e-07
307.0,3.4339e-07
307.2,3.1404e-07
307.4,2.872e-07
307.6,2.6265e-07
307.8,2.4021e-07
308.0,2.1968e-07
308.2,2.009e-07
308.4,1.8373e-07
308.6,1.6803e-07
308.8,1.5367e-07
309.0,1.4054e-07
309.2,1.2852e-07
309.4,1.1754e-07
309.6,1.0749e-07
309.8,9.8307e-08
310.0,8.9905e-08
310.2,8.2221e-08
310.4,7.5194e-08
310.6,6.8768e-08
310.8,6.289e-08
311.0,6.2228e-08
311.2,6.1883e-08
311.4,6.154e-08
311.6,6.1199e-08
311.8,6.086e-08
312.0,6.0523e-08
312.2,6.0187e-08
312.4,5.9853e-08
312.6,5.9522e-08
312.8,5.9192e-08
313.0,5.8864e-08
313.2,5.8537e-08
313.4,5.8213e-08
313.6,5.789e-08
313.8,5.7569e-08
314.0,5.725e-08
314.2,5.6933e-08
314.4,5.6617e-08
314.6,5.6304e-08
314.8,5.5992e-08
315.0,5.5706e-08
315.2,5.5439e-08
315.4,5.5173e-08
315.6,5.4908e-08
315.8,5.4644e-08
316.0,5.4382e-08
316.2,5.4121e-08
316.4,5.3861e-08
316.6,5.3603e-08
316.8,5.3345e-08
317.0,5.3089e-08
317.2,5.2835e-08
317.4,5.2581e-08
317.6,5.2329e-08
317.8,5.2077e-08
318.0,5.1827e-08
318.2,5.1579e-08
318.4,5.1331e-08
318.6,5.1085e-08
318.8,5.084e-08
319.0,5.0636e-08
319.2,5.0538e-08
319.4,5.044e-08
319.6,5.0343e-08
319.8,5.0245e-08
320.0,5.0148e-08
320.2,5.0052e-08
320.4,4.9955e-08
320.6,4.9858e-08
320.8,4.9762e-08
321.0,4.9666e-08
321.2,4.957e-08
321.4,4.9474e-08
321.6,4.9379e-08
321.8,4.9283e-08
322.0,4.9188e-08
322.2,4.9093e-08
322.4,4.8998e-08
322.6,4.8904e-08
322.8,4.8809e-08
323.0,4.8715e-08
323.2,4.8167e-08
323.4,4.7605e-08
323.6,4.705e-08
323.8,4.65e-08
324.0,4.5958e-08
324.2,4.5421e-08
324.4,4.4891e-08
324.6,4.4367e-08
324.8,4.3849e-08
325.0,4.3337e-08
325.2,4.2832e-08
325.4,4.2332e-08
325.6,4.1837e-08
325.8,4.1349e-08
326.0,4.0866e-08
326.2,4.0389e-08
326.4,3.9918e-08
326.6,3.9452e-08
326.8,3.8992e-08
327.0,3.8536e-08
327.2,4.1071e-08
327.4,4.5627e-08
327.6,5.0689e-08
327.8,5.6313e-08
328.0,6.256e-08
328.2,6.9501e-08
328.4,7.7211e-08
328.6,8.5777e-08
328.8,9.5294e-08
329.0,1.0587e-07
329.2,1.1761e-07
329.4,1.3066e-07
329.6,1.4515e-07
329.8,1.6126e-07
330.0,1.7915e-07
330.2,1.9902e-07
330.4,2.211e-07
330.6,2.4563e-07
330.8,2.7288e-07
331.0,3.0316e-07
331.2,3.1081e-07
331.4,2.7359e-07
331.6,2.4084e-07
331.8,2.12e-07
332.0,1.8662e-07
332.2,1.6428e-07
332.4,1.4461e-07
332.6,1.273e-07
332.8,1.1205e-07
333.0,9.8638e-08
333.2,8.6829e-08
333.4,7.6433e-08
333.6,6.7282e-08
333.8,5.9226e-08
334.0,5.2135e-08
334.2,4.5893e-08
334.4,4.0399e-08
334.6,3.5562e-08
334.8,3.1304e-08
335.0,2.7556e-08
335.2,2.446e-08
335.4,2.5056e-08
335.6,2.5666e-08
335.8,2.6291e-08
336.0,2.6932e-08
336.2,2.7588e-08
336.4,2.826e-08
336.6,2.8948e-08
336.8,2.9653e-08
337.0,3.0375e-08
337.2,3.1115e-08
337.4,3.1873e-08
337.6,3.265e-08
337.8,3.3445e-08
338.0,3.426e-08
338.2,3.5094e-08
338.4,3.5949e-08
338.6,3.6825e-08
338.8,3.7722e-08
339.0,3.864e-08
339.2,3.9582e-08
339.4,3.9531e-08
339.6,3.919e-08
339.8,3.8852e-08
340.0,3.8518e-08
340.2,3.8186e-08
340.4,3.7857e-08
340.6,3.7531e-08
340.8,3.7207e-08
341.0,3.6887e-08
341.2,3.6569e-08
341.4,3.6254e-08
341.6,3.5942e-08
341.8,3.5632e-08
342.0,3.5325e-08
342.2,3.5021e-08
342.4,3.4719e-08
342.6,3.442e-08
342.8,3.4123e-08
343.0,3.3829e-08
343.2,3.3538e-08
343.4,3.2763e-08
343.6,3.1539e-08
343.8,3.036e-08
344.0,2.9226e-08
344.2,2.8133e-08
344.4,2.7082e-08
344.6,2.607e-08
344.8,2.5096e-08
345.0,2.4158e-08
345.2,2.3255e-08
345.4,2.2386e-08
345.6,2.1549e-08
345.8,2.0744e-08
346.0,1.9969e-08
346.2,1.9222e-08
346.4,1.8504e-08
346.6,1.7813e-08
346.8,1.7147e-08
347.0,1.6506e-08
347.2,1.5889e-08
347.4,1.5438e-08
347.6,1.5445e-08
347.8,1.5452e-08
348.0,1.546e-08
348.2,1.5467e-08
348.4,1.5474e-08
348.6,1.5482e-08
348.8,1.5489e-08
349.0,1.5496e-08
349.2,1.5504e-08
349.4,1.5511e-08
349.6,1.5518e-08
349.8,1.5526e-08
350.0,1.5533e-08
350.2,1.5541e-08
350.4,1.5548e-08
350.6,1.5555e-08
350.8,1.5563e-08
351.0,1.557e-08
351.2,1.5578e-08
351.4,1.5585e-08
351.6,1.8021e-08
351.8,2.0883e-08
352.0,2.42e-08
352.2,2.8044e-08
352.4,3.2499e-08
352.6,3.7661e-08
352.8,4.3644e-08
353.0,5.0576e-08
353.2,5.861e-08
353.4,6.792e-08
353.6,7.8709e-08
353.8,9.1211e-08
354.0,1.057e-07
354.2,1.2249e-07
354.4,1.4195e-07
354.6,1.6449e-07
354.8,1.9062e-07
355.0,2.209e-07
355.2,2.5599e-07
355.4,2.9665e-07
355.6,2.9656e-07
355.8,2.8148e-07
356.0,2.6716e-07
356.2,2.5358e-07
356.4,2.4068e-07
356.6,2.2844e-07
356.8,2.1682e-07
357.0,2.0579e-07
357.2,1.9533e-07
357.4,1.8539e-07
357.6,1.7596e-07
357.8,1.6701e-07
358.0,1.5852e-07
358.2,1.5046e-07
358.4,1.428e-07
358.6,1.3554e-07
358.8,1.2865e-07
359.0,1.221e-07
359.2,1.1589e-07
359.4,1.1e-07
359.6,1.4085e-07
359.8,2.4187e-07
360.0,4.1533e-07
360.2,4.3443e-07
360.4,4.5441e-07
360.6,4.7531e-07
360.8,4.9717e-07
361.0,5.2004e-07
361.2,5.4395e-07
361.4,5.6897e-07
361.6,5.9514e-07
361.8,6.2251e-07
362.0,6.5114e-07
362.2,6.8109e-07
362.4,7.1241e-07
362.6,7.4518e-07
362.8,7.7945e-07
363.0,7.8977e-07
363.2,7.9369e-07
363.4,7.9763e-07
363.6,8.0159e-07
363.8,8.0558e-07
364.0,8.0958e-07
364.2,8.136e-07
364.4,8.1764e-07
364.6,8.217e-07
364.8,8.2578e-07
365.0,8.2988e-07
365.2,8.34e-07
365.4,8.3814e-07
365.6,8.4231e-07
365.8,8.4649e-07
366.0,8.5069e-07
366.2,8.5492e-07
366.4,8.5917e-07
366.6,8.6343e-07
366.8,8.6772e-07
367.0,8.6905e-07
367.2,8.6774e-07
367.4,8.6643e-07
367.6,8.6512e-07
367.8,8.6382e-07
368.0,8.6251e-07
368.2,8.6121e-07
368.4,8.5991e-07
368.6,8.5862e-07
368.8,8.5732e-07
369.0,8.5603e-07
369.2,8.5474e-07
369.4,8.5345e-07
369.6,8.5216e-07
369.8,8.5087e-07
370.0,8.4959e-07
370.2,8.9041e-07
370.4,9.3319e-07
370.6,9.7803e-07
370.8,1.025e-06
371.0,1.0743e-06
371.2,1.1259e-06
371.4,1.18e-06
371.6,1.2367e-06
371.8,1.2961e-06
372.0,1.3583e-06
372.2,1.4236e-06
372.4,1.492e-06
372.6,1.5637e-06
372.8,1.6388e-06
373.0,1.6618e-06
373.2,1.6717e-06
373.4,1.6817e-06
373.6,1.6917e-06
373.8,1.7017e-06
374.0,1.7119e-06
374.2,1.7221e-06
374.4,1.7323e-06
374.6,1.7426e-06
374.8,1.753e-06
375.0,1.7634e-06
375.2,1.7739e-06
375.4,1.7845e-06
375.6,1.7951e-06
375.8,1.8058e-06
376.0,1.8166e-06
376.2,1.8274e-06
376.4,1.8382e-06
376.6,1.8492e-06
376.8,1.8602e-06
377.0,1.8079e-06
377.2,1.7082e-06
377.4,1.614e-06
377.6,1.5251e-06
377.8,1.441e-06
378.0,1.3615e-06
378.2,1.2865e-06
378.4,1.2156e-06
378.6,1.1485e-06
378.8,1.0852e-06
379.0,1.0254e-06
379.2,9.6886e-07
379.4,9.1545e-07
379.6,8.6498e-07
379.8,8.1729e-07
380.0,7.7224e-07
380.2,7.7566e-07
380.4,7.7909e-07
380.6,7.8254e-07
380.8,7.8601e-07
381.0,7.8949e-07
381.2,7.9298e-07
381.4,7.965e-07
381.6,8.0002e-07
381.8,8.0357e-07
382.0,8.0713e-07
382.2,8.107e-07
382.4,8.1429e-07
382.6,8.179e-07
382.8,8.2152e-07
383.0,8.2855e-07
383.2,8.3653e-07
383.4,8.4459e-07
383.6,8.5272e-07
383.8,8.6093e-07
384.0,8.6923e-07
384.2,8.776e-07
384.4,8.8605e-07
384.6,8.9458e-07
384.8,9.032e-07
385.0,9.119e-07
385.2,9.2068e-07
385.4,9.2954e-07
385.6,9.385e-07
385.8,9.4753e-07
386.0,9.5666e-07
386.2,9.6587e-07
386.4,9.7518e-07
386.6,9.8457e-07
386.8,9.9405e-07
387.0,1.0068e-06
387.2,1.0224e-06
387.4,1.0382e-06
387.6,1.0543e-06
387.8,1.0706e-06
388.0,1.0872e-06
388.2,1.104e-06
388.4,1.1211e-06
388.6,1.1385e-06
388.8,1.1561e-06
389.0,1.174e-06
389.2,1.1922e-06
389.4,1.2106e-06
389.6,1.2294e-06
389.8,1.2484e-06
390.0,1.2678e-06
390.2,1.3122e-06
390.4,1.3583e-06
390.6,1.4059e-06
390.8,1.4552e-06
391.0,1.5063e-06
391.2,1.5591e-06
391.4,1.6138e-06
391.6,1.6704e-06
391.8,1.729e-06
392.0,1.7897e-06
392.2,1.8524e-06
392.4,1.9174e-06
392.6,1.9847e-06
392.8,2.0543e-06
393.0,2.0803e-06
393.2,2.0939e-06
393.4,2.1077e-06
393.6,2.1215e-06
393.8,2.1354e-06
394.0,2.1495e-06
394.2,2.1636e-06
394.4,2.1778e-06
394.6,2.1921e-06
394.8,2.2065e-06
395.0,2.221e-06
395.2,2.2355e-06
395.4,2.2502e-06
395.6,2.265e-06
395.8,2.2799e-06
396.0,2.2948e-06
396.2,2.3099e-06
396.4,2.3251e-06
396.6,2.3403e-06
396.8,2.3557e-06
397.0,2.3237e-06
397.2,2.2537e-06
397.4,2.1858e-06
397.6,2.1199e-06
397.8,2.056e-06
398.0,1.9941e-06
398.2,1.934e-06
398.4,1.8757e-06
398.6,1.8192e-06
398.8,1.7644e-06
399.0,1.7112e-06
399.2,1.6597e-06
399.4,1.6097e-06
399.6,1.5612e-06
399.8,1.5141e-06
400.0,1.4685e-06
400.2,1.501e-06
400.4,1.5342e-06
400.6,1.5681e-06
400.8,1.6028e-06
401.0,1.6382e-06
401.2,1.6745e-06
401.4,1.7115e-06
401.6,1.7493e-06
401.8,1.788e-06
402.0,1.8276e-06
402.2,1.868e-06
402.4,1.9093e-06
402.6,1.9515e-06
402.8,1.9947e-06
403.0,2.0525e-06
403.2,2.1166e-06
403.4,2.1826e-06
403.6,2.2508e-06
403.8,2.3211e-06
404.0,2.3935e-06
404.2,2.4683e-06
404.4,2.5453e-06
404.6,2.6248e-06
404.8,2.7067e-06
405.0,2.7913e-06
405.2,2.8784e-06
405.4,2.9683e-06
405.6,3.0609e-06
405.8,3.1565e-06
406.0,3.2551e-06
406.2,3.3567e-06
406.4,3.4615e-06
406.6,3.5696e-06
406.8,3.681e-06
407.0,3.7073e-06
407.2,3.6548e-06
407.4,3.6031e-06
407.6,3.5521e-06
407.8,3.5018e-06
408.0,3.4522e-06
408.2,3.4033e-06
408.4,3.3552e-06
408.6,3.3077e-06
408.8,3.2608e-06
409.0,3.2147e-06
409.2,3.1692e-06
409.4,3.1243e-06
409.6,3.0801e-06
409.8,3.0365e-06
410.0,2.9935e-06
410.2,2.9821e-06
410.4,2.9708e-06
410.6,2.9595e-06
410.8,2.9483e-06
411.0,2.9371e-06
411.2,2.9259e-06
411.4,2.9148e-06
411.6,2.9038e-06
411.8,2.8928e-06
412.0,2.8818e-06
412.2,2.8708e-06
412.4,2.8599e-06
412.6,2.8491e-06
412.8,2.8383e-06
413.0,2.9123e-06
413.2,3.0111e-06
413.4,3.1132e-06
413.6,3.2188e-06
413.8,3.328e-06
414.0,3.4409e-06
414.2,3.5576e-06
414.4,3.6783e-06
414.6,3.8031e-06
414.8,3.9321e-06
415.0,4.0655e-06
415.2,4.2034e-06
415.4,4.346e-06
415.6,4.4934e-06
415.8,4.6458e-06
416.0,4.8034e-06
416.2,4.9664e-06
416.4,5.1348e-06
416.6,5.309e-06
416.8,5.4891e-06
417.0,5.5286e-06
417.2,5.4615e-06
417.4,5.3953e-06
417.6,5.3299e-06
417.8,5.2653e-06
418.0,5.2015e-06
418.2,5.1384e-06
418.4,5.0761e-06
418.6,5.0146e-06
418.8,4.9538e-06
419.0,4.8937e-06
419.2,4.8344e-06
419.4,4.7758e-06
419.6,4.7179e-06
419.8,4.6607e-06
420.0,4.6042e-06
420.2,4.5546e-06
420.4,4.5056e-06
420.6,4.4571e-06
420.8,4.4092e-06
421.0,4.3617e-06
421.2,4.3148e-06
421.4,4.2684e-06
421.6,4.2225e-06
421.8,4.177e-06
422.0,4.1321e-06
422.2,4.0876e-06
422.4,4.0437e-06
422.6,4.0002e-06
422.8,3.9571e-06
423.0,3.9145e-06
423.2,3.8724e-06
423.4,3.8308e-06
423.6,3.7896e-06
423.8,3.7488e-06
424.0,3.762e-06
424.2,3.8666e-06
424.4,3.9741e-06
424.6,4.0846e-06
424.8,4.1982e-06
425.0,4.315e-06
425.2,4.4349e-06
425.4,4.5582e-06
425.6,4.685e-06
425.8,4.8153e-06
426.0,4.9492e-06
426.2,5.0868e-06
426.4,5.2282e-06
426.6,5.3736e-06
426.8,5.523e-06
427.0,5.6766e-06
427.2,5.8344e-06
427.4,5.9902e-06
427.6,6.113e-06
427.8,6.2383e-06
428.0,6.3662e-06
428.2,6.4967e-06
428.4,6.6299e-06
428.6,6.7658e-06
428.8,6.9045e-06
429.0,7.0461e-06
429.2,7.1905e-06
429.4,7.3379e-06
429.6,7.4883e-06
429.8,7.6418e-06
430.0,7.7985e-06
430.2,7.9583e-06
430.4,8.1215e-06
430.6,8.288e-06
430.8,8.4579e-06
431.0,8.2536e-06
431.2,7.158e-06
431.4,6.2078e-06
431.6,5.3838e-06
431.8,4.6692e-06
432.0,4.0494e-06
432.2,3.5119e-06
432.4,3.0457e-06
432.6,2.6414e-06
432.8,2.2908e-06
433.0,1.9867e-06
433.2,1.723e-06
433.4,1.4943e-06
433.6,1.2959e-06
433.8,1.1239e-06
434.0,9.7472e-07
434.2,8.4534e-07
434.4,7.3313e-07
434.6,6.3581e-07
434.8,5.5141e-07
435.0,4.7822e-07
435.2,4.8093e-07
435.4,4.8366e-07
435.6,4.8641e-07
435.8,4.8917e-07
436.0,4.9195e-07
436.2,4.9474e-07
436.4,4.9755e-07
436.6,5.0038e-07
436.8,5.0322e-07
437.0,5.0607e-07
437.2,5.0895e-07
437.4,5.1184e-07
437.6,5.1474e-07
437.8,5.1767e-07
438.0,5.206e-07
438.2,5.2356e-07
438.4,5.2653e-07
438.6,5.2952e-07
438.8,5.3253e-07
439.0,5.3555e-07
439.2,5.429e-07
439.4,5.5048e-07
439.6,5.5816e-07
439.8,5.6595e-07
440.0,5.7386e-07
440.2,5.8187e-07
440.4,5.8999e-07
440.6,5.9823e-07
440.8,6.0658e-07
441.0,6.1505e-07
441.2,6.2364e-07
441.4,6.3234e-07
441.6,6.4117e-07
441.8,6.5012e-07
442.0,6.592e-07
442.2,6.684e-07
442.4,6.7774e-07
442.6,6.8634e-07
442.8,6.9323e-07
443.0,7.0019e-07
443.2,7.0723e-07
443.4,7.1433e-07
443.6,7.2151e-07
443.8,7.2875e-07
444.0,7.3607e-07
444.2,7.4347e-07
444.4,7.5093e-07
444.6,7.5848e-07
444.8,7.661e-07
445.0,7.7379e-07
445.2,7.8156e-07
445.4,7.8941e-07
445.6,7.9734e-07
445.8,8.0535e-07
446.0,8.1344e-07
446.2,7.5867e-07
446.4,6.9809e-07
446.6,6.4234e-07
446.8,5.9105e-07
447.0,5.4385e-07
447.2,5.0042e-07
447.4,4.6046e-07
447.6,4.2369e-07
447.8,3.8985e-07
448.0,3.5872e-07
448.2,3.3008e-07
448.4,3.0372e-07
448.6,2.7946e-07
448.8,2.5715e-07
449.0,2.3661e-07
449.2,2.1772e-07
449.4,2.0033e-07
449.6,1.8433e-07
449.8,1.6961e-07
450.0,1.5607e-07
450.2,4.6818e-08
450.4,1.9733e-07
450.6,1.0576e-07
450.8,4.4359e-08
451.0,4.4204e-08
451.2,4.4076e-08
451.4,5.5297e-08
451.6,1.4732e-07
451.8,2.0341e-07
452.0,1.4349e-07
452.2,8.7154e-08
452.4,8.848e-08
452.6,1.216e-07
452.8,9.0563e-08
453.0,1.3472e-07
453.2,8.2198e-08
453.4,4.29e-08
453.6,4.6401e-08
453.8,7.9942e-08
454.0,5.2199e-08
454.2,8.4176e-08
454.4,1.3202e-07
454.6,1.4253e-07
454.8,1.9341e-07
455.0,3.3345e-07
455.2,3.3497e-07
455.4,1.0137e-07
455.6,7.656e-08
455.8,2.1007e-07
456.0,1.9648e-07
456.2,8.8851e-08
456.4,1.535e-07
456.6,2.4148e-07
456.8,1.9094e-07
457.0,1.2507e-07
457.2,9.8177e-08
457.4,5.2211e-08
457.6,1.5632e-07
457.8,5.6228e-08
458.0,5.9295e-08
458.2,6.3209e-08
458.4,4.4249e-08
458.6,6.9081e-08
458.8,4.1355e-08
459.0,7.1251e-08
459.2,1.751e-07
459.4,2.596e-07
459.6,2.3679e-07
459.8,2.3361e-07
460.0,7.9009e-08
460.2,7.8434e-08
460.4,1.3117e-07
460.6,1.0773e-07
460.8,7.7809e-08
461.0,8.4416e-08
461.2,1.4566e-07
461.4,1.0606e-07
461.6,8.1381e-08
461.8,9.8757e-08
462.0,7.3989e-08
462.2,6.0997e-08
462.4,4.0774e-07
462.6,2.2576e-07
462.8,1.1992e-07
463.0,1.4911e-07
463.2,1.8906e-07
463.4,1.6146e-07
463.6,1.2512e-07
463.8,2.9832e-07
464.0,2.5496e-07
464.2,1.8245e-07
464.4,1.3152e-07
464.6,7.3597e-08
464.8,3.696e-08
465.0,3.6832e-08
465.2,3.6725e-08
465.4,1.2202e-07
465.6,1.8969e-07
465.8,9.988e-08
466.0,1.7272e-07
466.2,2.8321e-07
466.4,1.6272e-07
466.6,1.8537e-07
466.8,1.0232e-07
467.0,5.5402e-08
467.2,2.3043e-07
467.4,2.8579e-07
467.6,1.4952e-07
467.8,5.1398e-08
468.0,5.0558e-08
468.2,1.1621e-07
468.4,3.2653e-07
468.6,1.9994e-07
468.8,1.7328e-07
469.0,1.1522e-07
469.2,1.0373e-07
469.4,1.0333e-07
469.6,8.4257e-08
469.8,3.5108e-08
470.0,6.7072e-08
470.2,1.2747e-07
470.4,1.5971e-07
470.6,1.0831e-07
470.8,8.2553e-08
471.0,1.3739e-07
471.2,1.6354e-07
471.4,1.7178e-07
471.6,1.9508e-07
471.8,1.7854e-07
472.0,1.6637e-07
472.2,1.1585e-07
472.4,3.3696e-08
472.6,1.0054e-07
472.8,1.2281e-07
473.0,1.2752e-07
473.2,1.1071e-07
473.4,1.1749e-07
473.6,1.3997e-07
473.8,6.7336e-08
474.0,1.4509e-07
474.2,1.9773e-07
474.4,1.537e-07
474.6,1.1146e-07
474.8,1.2683e-07
475.0,2.5403e-07
475.2,4.4229e-08
475.4,1.0877e-07
475.6,2.1914e-07
475.8,2.187e-07
476.0,1.5488e-07
476.2,8.593e-08
476.4,6.1958e-08
476.6,1.4502e-07
476.8,9.7629e-08
477.0,1.1406e-07
477.2,1.9087e-07
477.4,1.552e-07
477.6,2.4503e-07
477.8,1.0194e-07
478.0,4.2436e-08
478.2,5.0352e-08
478.4,9.8632e-08
478.6,1.5323e-07
478.8,1.8604e-07
479.0,5.7517e-08
479.2,3.3047e-08
479.4,4.482e-08
479.6,1.1749e-07
479.8,2.7765e-07
480.0,1.253e-07
480.2,3.8871e-08
480.4,1.6022e-07
480.6,1.2609e-07
480.8,1.2842e-07
481.0,1.5053e-07
481.2,1.504e-07
481.4,8.3655e-08
481.6,1.151e-07
481.8,1.5788e-07
482.0,1.478e-07
482.2,6.7505e-08
482.4,4.6295e-08
482.6,2.4394e-07
482.8,1.7963e-07
483.0,1.3668e-07
483.2,1.7653e-07
483.4,1.8885e-07
483.6,1.977e-07
483.8,2.0941e-07
484.0,1.8746e-07
484.2,1.7372e-07
484.4,3.4493e-07
484.6,5.549e-08
484.8,7.108e-08
485.0,1.5411e-07
485.2,1.0105e-07
485.4,8.0138e-08
485.6,1.2634e-07
485.8,1.5204e-07
486.0,1.6999e-07
486.2,1.8937e-07
486.4,1.2485e-07
486.6,2.6074e-08
486.8,6.2097e-08
487.0,1.0588e-07
487.2,1.2376e-07
487.4,1.9139e-07
487.6,2.9594e-07
487.8,3.1567e-07
488.0,1.8131e-07
488.2,1.1457e-07
488.4,9.922e-08
488.6,1.9944e-07
488.8,2.3436e-07
489.0,1.8568e-07
489.2,2.3218e-07
489.4,1.5419e-07
489.6,1.9909e-07
489.8,2.4153e-07
490.0,1.0718e-07
490.2,3.569e-08
490.4,3.4206e-08
490.6,1.5938e-07
490.8,1.6239e-07
491.0,1.4792e-07
491.2,1.6254e-07
491.4,2.024e-07
491.6,1.9811e-07
491.8,1.8688e-07
492.0,2.2205e-07
492.2,2.253e-07
492.4,2.558e-07
492.6,2.8292e-07
492.8,2.6799e-07
493.0,2.9115e-07
493.2,3.6584e-07
493.4,2.1981e-07
493.6,3.1607e-07
493.8,4.8873e-07
494.0,6.4758e-07
494.2,8.3576e-07
494.4,1.1809e-06
494.6,1.4695e-06
494.8,2.0907e-06
495.0,3.2532e-06
495.2,5.2478e-06
495.4,8.6036e-06
495.6,1.5118e-05
495.8,2.5535e-05
496.0,4.3008e-05
496.2,7.5058e-05
496.4,1.3288e-04
496.6,2.3935e-04
496.8,4.475e-04
497.0,0.00102
497.2,0.00198
497.4,0.00368
497.6,0.00726
497.8,0.01507
498.0,0.03284
498.2,0.07362
498.4,0.16171
498.6,0.31126
498.8,0.53265
499.0,0.73594
499.2,0.8618
499.4,0.91846
499.6,0.943
499.8,0.95581
500.0,0.96398
500.2,0.96812
500.4,0.97063
500.6,0.97246
500.8,0.97483
501.0,0.97683
501.2,0.97956
501.4,0.98307
501.6,0.9852
501.8,0.98697
502.0,0.98804
502.2,0.98752
502.4,0.98512
502.6,0.98182
502.8,0.97737
503.0,0.97338
503.2,0.96982
503.4,0.96648
503.6,0.96393
503.8,0.96332
504.0,0.96251
504.2,0.9624
504.4,0.96427
504.6,0.96631
504.8,0.96991
505.0,0.97204
505.2,0.97525
505.4,0.97758
505.6,0.98075
505.8,0.98214
506.0,0.98388
506.2,0.98451
506.4,0.9849
506.6,0.98491
506.8,0.98462
507.0,0.98515
507.2,0.98448
507.4,0.98396
507.6,0.98295
