Type: filter
Name: Semrock FF01-676/37 Optical Filter
Wavelength (nm), Transmission (0 to 1)
265.0,6.7793e-06
265.2,6.6494e-06
265.4,6.522e-06
265.6,6.3971e-06
265.8,6.2745e-06
266.0,6.1543e-06
266.2,6.0364e-06
266.4,5.9208e-06
266.6,5.8074e-06
266.8,5.6961e-06
267.0,5.587e-06
267.2,4.9932e-06
267.4,4.454e-06
267.6,3.9731e-06
267.8,3.544e-06
268.0,3.1614e-06
268.2,2.82e-06
268.4,2.5155e-06
268.6,2.2439e-06
268.8,2.0016e-06
269.0,1.7854e-06
269.2,1.5927e-06
269.4,1.4207e-06
269.6,1.2673e-06
269.8,1.1304e-06
270.0,1.0084e-06
270.2,8.9948e-07
270.4,8.0236e-07
270.6,7.1572e-07
270.8,6.5965e-07
271.0,6.5387e-07
271.2,6.4814e-07
271.4,6.4247e-07
271.6,6.3684e-07
271.8,6.3126e-07
272.0,6.2573e-07
272.2,6.2025e-07
272.4,6.1481e-07
272.6,6.0942e-07
272.8,6.0409e-07
273.0,5.9879e-07
273.2,5.9355e-07
273.4,5.8835e-07
273.6,5.8319e-07
273.8,5.7808e-07
274.0,5.7302e-07
274.2,5.68e-07
274.4,5.6302e-07
274.6,1.15e-06
274.8,3.4669e-06
275.0,1.0452e-05
275.2,1.0953e-05
275.4,1.1478e-05
275.6,1.0635e-05
275.8,8.9295e-06
276.0,7.4972e-06
276.2,6.2947e-06
276.4,5.285e-06
276.6,4.4373e-06
276.8,3.7255e-06
277.0,3.128e-06
277.2,2.6262e-06
277.4,2.205e-06
277.6,1.8513e-06
277.8,1.5543e-06
278.0,1.305e-06
278.2,1.0957e-06
278.4,9.1995e-07
278.6,7.7239e-07
278.8,6.485e-07
279.0,5.4448e-07
279.2,4.5714e-07
279.4,4.4318e-07
279.6,4.3736e-07
279.8,4.316e-07
280.0,4.2593e-07
280.2,4.2033e-07
280.4,4.148e-07
280.6,4.0934e-07
280.8,4.0396e-07
281.0,3.9865e-07
281.2,3.9341e-07
281.4,3.8823e-07
281.6,3.8313e-07
281.8,3.7809e-07
282.0,3.7312e-07
282.2,3.6821e-07
282.4,3.6337e-07
282.6,3.5859e-07
282.8,3.5387e-07
283.0,3.4897e-07
283.2,3.4336e-07
283.4,3.3783e-07
283.6,3.324e-07
283.8,3.2705e-07
284.0,3.2179e-07
284.2,3.1662e-07
284.4,3.1152e-07
284.6,3.0651e-07
284.8,3.0158e-07
285.0,2.9673e-07
285.2,2.9105e-07
285.4,2.8549e-07
285.6,3.0316e-07
285.8,3.3906e-07
286.0,3.7921e-07
286.2,4.2412e-07
286.4,4.7434e-07
286.6,5.3051e-07
286.8,5.9333e-07
287.0,6.6359e-07
287.2,7.4218e-07
287.4,8.3006e-07
287.6,9.2836e-07
287.8,1.0383e-06
288.0,1.1612e-06
288.2,1.2988e-06
288.4,1.4525e-06
288.6,1.6246e-06
288.8,1.8169e-06
289.0,2.0321e-06
289.2,2.2727e-06
289.4,1.9926e-06
289.6,1.7271e-06
289.8,1.497e-06
290.0,1.2975e-06
290.2,1.1246e-06
290.4,9.7478e-07
290.6,8.4489e-07
290.8,7.3231e-07
291.0,6.3474e-07
291.2,5.5016e-07
291.4,4.7686e-07
291.6,4.1332e-07
291.8,3.5824e-07
292.0,3.1051e-07
292.2,2.6914e-07
292.4,2.3328e-07
292.6,2.0219e-07
292.8,1.7525e-07
293.0,1.593e-07
293.2,1.6099e-07
293.4,1.6269e-07
293.6,1.644e-07
293.8,1.6614e-07
294.0,1.679e-07
294.2,1.6967e-07
294.4,1.7146e-07
294.6,1.7327e-07
294.8,1.751e-07
295.0,1.7695e-07
295.2,1.9527e-07
295.4,2.1548e-07
295.6,2.3778e-07
295.8,2.6239e-07
296.0,2.8954e-07
296.2,3.1951e-07
296.4,3.5258e-07
296.6,3.8907e-07
296.8,4.2934e-07
297.0,4.7378e-07
297.2,5.2281e-07
297.4,5.7692e-07
297.6,6.3663e-07
297.8,7.0252e-07
298.0,7.6021e-07
298.2,7.607e-07
298.4,7.612e-07
298.6,7.617e-07
298.8,7.6219e-07
299.0,7.6269e-07
299.2,7.6319e-07
299.4,7.6368e-07
299.6,7.6418e-07
299.8,7.6468e-07
300.0,7.6518e-07
300.2,7.6568e-07
300.4,7.6618e-07
300.6,7.6668e-07
300.8,7.6718e-07
301.0,7.6768e-07
301.2,7.6818e-07
301.4,7.6868e-07
301.6,7.6918e-07
301.8,7.7603e-07
302.0,7.8791e-07
302.2,7.9997e-07
302.4,8.1222e-07
302.6,8.2465e-07
302.8,8.3728e-07
303.0,8.501e-07
303.2,8.6311e-07
303.4,8.7633e-07
303.6,8.8974e-07
303.8,9.0337e-07
304.0,9.172e-07
304.2,9.3124e-07
304.4,9.455e-07
304.6,9.5997e-07
304.8,9.7467e-07
305.0,9.8959e-07
305.2,1.0091e-06
305.4,1.029e-06
305.6,1.0256e-06
305.8,9.4302e-07
306.0,8.6706e-07
306.2,7.9722e-07
306.4,7.33e-07
306.6,6.7396e-07
306.8,6.1967e-07
307.0,5.6975e-07
307.2,5.2386e-07
307.4,4.8166e-07
307.6,4.4286e-07
307.8,4.0719e-07
308.0,3.7439e-07
308.2,3.4423e-07
308.4,3.165e-07
308.6,2.9101e-07
308.8,2.6757e-07
309.0,2.4602e-07
309.2,2.262e-07
309.4,2.1305e-07
309.6,2.0442e-07
309.8,1.9614e-07
310.0,1.882e-07
310.2,1.8058e-07
310.4,1.7327e-07
310.6,1.6625e-07
310.8,1.5952e-07
311.0,1.5306e-07
311.2,1.4686e-07
311.4,1.4091e-07
311.6,1.3521e-07
311.8,1.2973e-07
312.0,1.2448e-07
312.2,1.1944e-07
312.4,1.146e-07
312.6,1.0996e-07
312.8,1.0551e-07
313.0,1.0123e-07
313.2,1.1295e-07
313.4,1.2781e-07
313.6,1.4461e-07
313.8,1.6363e-07
314.0,1.8515e-07
314.2,2.095e-07
314.4,2.3705e-07
314.6,2.6822e-07
314.8,3.035e-07
315.0,3.4341e-07
315.2,3.8857e-07
315.4,4.3967e-07
315.6,4.9748e-07
315.8,5.6291e-07
316.0,6.3693e-07
316.2,7.2069e-07
316.4,8.1547e-07
316.6,9.227e-07
316.8,9.7299e-07
317.0,8.5201e-07
317.2,7.4608e-07
317.4,6.5332e-07
317.6,5.7209e-07
317.8,5.0096e-07
318.0,4.3867e-07
318.2,3.8413e-07
318.4,3.3637e-07
318.6,2.9455e-07
318.8,2.5793e-07
319.0,2.2586e-07
319.2,1.9778e-07
319.4,1.7319e-07
319.6,1.5165e-07
319.8,1.328e-07
320.0,1.1629e-07
320.2,1.0183e-07
320.4,8.9169e-08
320.6,8.488e-08
320.8,8.4597e-08
321.0,8.4315e-08
321.2,8.4034e-08
321.4,8.3753e-08
321.6,8.3474e-08
321.8,8.3196e-08
322.0,8.2918e-08
322.2,8.2641e-08
322.4,8.2366e-08
322.6,8.2091e-08
322.8,8.1817e-08
323.0,8.1544e-08
323.2,8.1272e-08
323.4,8.1001e-08
323.6,8.0731e-08
323.8,8.0462e-08
324.0,8.0193e-08
324.2,7.9912e-08
324.4,7.8938e-08
324.6,7.7976e-08
324.8,7.7026e-08
325.0,7.6088e-08
325.2,7.516e-08
325.4,7.4245e-08
325.6,7.334e-08
325.8,7.2446e-08
326.0,7.1564e-08
326.2,7.0692e-08
326.4,6.983e-08
326.6,6.898e-08
326.8,6.8139e-08
327.0,6.7309e-08
327.2,6.6489e-08
327.4,6.5679e-08
327.6,6.4878e-08
327.8,6.4088e-08
328.0,6.3334e-08
328.2,6.2629e-08
328.4,6.1932e-08
328.6,6.1243e-08
328.8,6.0561e-08
329.0,5.9887e-08
329.2,5.922e-08
329.4,5.8561e-08
329.6,5.7909e-08
329.8,5.7264e-08
330.0,5.6627e-08
330.2,5.5997e-08
330.4,5.5373e-08
330.6,5.4757e-08
330.8,5.4147e-08
331.0,5.3545e-08
331.2,5.2948e-08
331.4,5.2359e-08
331.6,5.1776e-08
331.8,5.2994e-08
332.0,5.4739e-08
332.2,5.6541e-08
332.4,5.8403e-08
332.6,6.0325e-08
332.8,6.2312e-08
333.0,6.4363e-08
333.2,6.6483e-08
333.4,6.8672e-08
333.6,7.0933e-08
333.8,7.3268e-08
334.0,7.5681e-08
334.2,7.8173e-08
334.4,8.0746e-08
334.6,8.3405e-08
334.8,8.6151e-08
335.0,8.8988e-08
335.2,6.8492e-08
335.4,5.2717e-08
335.6,4.4799e-08
335.8,4.8809e-08
336.0,5.3177e-08
336.2,5.7935e-08
336.4,6.312e-08
336.6,6.8769e-08
336.8,7.4923e-08
337.0,8.1628e-08
337.2,8.8933e-08
337.4,9.6891e-08
337.6,1.0556e-07
337.8,1.1501e-07
338.0,1.253e-07
338.2,1.3651e-07
338.4,1.4873e-07
338.6,1.6204e-07
338.8,1.7654e-07
339.0,1.9234e-07
339.2,2.0955e-07
339.4,2.2311e-07
339.6,2.3474e-07
339.8,2.4698e-07
340.0,2.5985e-07
340.2,2.7339e-07
340.4,2.8765e-07
340.6,3.0264e-07
340.8,3.1841e-07
341.0,3.3501e-07
341.2,3.5247e-07
341.4,3.7085e-07
341.6,3.9018e-07
341.8,4.1052e-07
342.0,4.3192e-07
342.2,4.5443e-07
342.4,4.7812e-07
342.6,5.0304e-07
342.8,5.2926e-07
343.0,5.5219e-07
343.2,4.7078e-07
343.4,4.0137e-07
343.6,3.422e-07
343.8,2.9175e-07
344.0,2.4874e-07
344.2,2.1206e-07
344.4,1.808e-07
344.6,1.5414e-07
344.8,1.3142e-07
345.0,1.1204e-07
345.2,9.5526e-08
345.4,8.1442e-08
345.6,6.9435e-08
345.8,5.9198e-08
346.0,5.0471e-08
346.2,4.303e-08
346.4,3.6686e-08
346.6,3.1278e-08
346.8,2.8567e-08
347.0,2.8586e-08
347.2,2.8604e-08
347.4,2.8622e-08
347.6,2.8641e-08
347.8,2.8659e-08
348.0,2.8678e-08
348.2,2.8696e-08
348.4,2.8714e-08
348.6,2.8733e-08
348.8,2.8751e-08
349.0,2.877e-08
349.2,2.8788e-08
349.4,2.8807e-08
349.6,2.8825e-08
349.8,2.8844e-08
350.0,2.8862e-08
350.2,2.8881e-08
350.4,2.8899e-08
350.6,3.1288e-08
350.8,3.4446e-08
351.0,3.7922e-08
351.2,4.1749e-08
351.4,4.5963e-08
351.6,5.0601e-08
351.8,5.5708e-08
352.0,6.1329e-08
352.2,6.7519e-08
352.4,7.4332e-08
352.6,8.1834e-08
352.8,9.0092e-08
353.0,9.9184e-08
353.2,1.0919e-07
353.4,1.2021e-07
353.6,1.3235e-07
353.8,1.457e-07
354.0,1.604e-07
354.2,1.6893e-07
354.4,1.5335e-07
354.6,1.392e-07
354.8,1.2636e-07
355.0,1.1471e-07
355.2,1.0413e-07
355.4,9.4522e-08
355.6,8.5804e-08
355.8,7.7889e-08
356.0,7.0705e-08
356.2,6.4183e-08
356.4,5.8263e-08
356.6,5.2889e-08
356.8,4.8011e-08
357.0,4.3582e-08
357.2,3.9562e-08
357.4,3.5913e-08
357.6,3.2601e-08
357.8,2.9594e-08
358.0,3.0174e-08
358.2,3.2798e-08
358.4,3.565e-08
358.6,3.875e-08
358.8,4.2119e-08
359.0,4.5782e-08
359.2,4.9762e-08
359.4,5.409e-08
359.6,5.8793e-08
359.8,6.3905e-08
360.0,6.9462e-08
360.2,7.5502e-08
360.4,8.2067e-08
360.6,8.9203e-08
360.8,9.696e-08
361.0,1.0539e-07
361.2,1.1456e-07
361.4,1.2452e-07
361.6,1.3462e-07
361.8,1.3468e-07
362.0,1.3473e-07
362.2,1.3479e-07
362.4,1.3485e-07
362.6,1.3491e-07
362.8,1.3497e-07
363.0,1.3503e-07
363.2,1.3509e-07
363.4,1.3515e-07
363.6,1.3521e-07
363.8,1.3527e-07
364.0,1.3533e-07
364.2,1.3539e-07
364.4,1.3545e-07
364.6,1.355e-07
364.8,1.3556e-07
365.0,1.3562e-07
365.2,1.1484e-07
365.4,9.724e-08
365.6,8.2337e-08
365.8,6.9719e-08
366.0,5.9035e-08
366.2,4.9987e-08
366.4,4.2327e-08
366.6,3.584e-08
366.8,3.0348e-08
367.0,2.7198e-08
367.2,2.7148e-08
367.4,2.7099e-08
367.6,2.705e-08
367.8,2.7001e-08
368.0,2.6952e-08
368.2,2.6903e-08
368.4,2.6854e-08
368.6,2.6806e-08
368.8,2.6757e-08
369.0,2.6709e-08
369.2,2.666e-08
369.4,2.6612e-08
369.6,2.6564e-08
369.8,2.6515e-08
370.0,2.6467e-08
370.2,2.6419e-08
370.4,2.6371e-08
370.6,2.6324e-08
370.8,2.9278e-08
371.0,3.3894e-08
371.2,3.9237e-08
371.4,4.5423e-08
371.6,5.2584e-08
371.8,6.0874e-08
372.0,7.0471e-08
372.2,8.1581e-08
372.4,9.4443e-08
372.6,1.0933e-07
372.8,1.2657e-07
373.0,1.4652e-07
373.2,1.6962e-07
373.4,1.9636e-07
373.6,2.2732e-07
373.8,2.6316e-07
374.0,3.0465e-07
374.2,3.5267e-07
374.4,3.9335e-07
374.6,3.3801e-07
374.8,2.9046e-07
375.0,2.496e-07
375.2,2.1449e-07
375.4,1.8432e-07
375.6,1.5839e-07
375.8,1.3611e-07
376.0,1.1696e-07
376.2,1.0051e-07
376.4,8.6371e-08
376.6,7.4221e-08
376.8,6.378e-08
377.0,5.4808e-08
377.2,4.7098e-08
377.4,4.0473e-08
377.6,3.4779e-08
377.8,2.9887e-08
378.0,2.5683e-08
378.2,2.3865e-08
378.4,2.377e-08
378.6,2.3674e-08
378.8,2.3579e-08
379.0,2.3485e-08
379.2,2.339e-08
379.4,2.3296e-08
379.6,2.3203e-08
379.8,2.311e-08
380.0,2.3017e-08
380.2,2.2924e-08
380.4,2.2832e-08
380.6,2.2741e-08
380.8,2.2649e-08
381.0,2.2558e-08
381.2,2.2468e-08
381.4,2.2378e-08
381.6,2.2288e-08
381.8,2.2198e-08
382.0,2.2097e-08
382.2,2.1995e-08
382.4,2.1894e-08
382.6,2.1793e-08
382.8,2.1693e-08
383.0,2.1593e-08
383.2,2.1493e-08
383.4,2.1394e-08
383.6,2.1296e-08
383.8,2.1198e-08
384.0,2.11e-08
384.2,2.1003e-08
384.4,2.0906e-08
384.6,2.081e-08
384.8,2.0714e-08
385.0,2.0618e-08
385.2,2.0523e-08
385.4,2.0429e-08
385.6,2.1102e-08
385.8,2.3313e-08
386.0,2.5757e-08
386.2,2.8456e-08
386.4,3.1439e-08
386.6,3.4734e-08
386.8,3.8374e-08
387.0,4.2396e-08
387.2,4.684e-08
387.4,5.1749e-08
387.6,5.7173e-08
387.8,6.3166e-08
388.0,6.9786e-08
388.2,7.71e-08
388.4,8.5181e-08
388.6,9.4109e-08
388.8,1.0397e-07
389.0,1.1487e-07
389.2,1.2691e-07
389.4,1.2973e-07
389.6,1.2974e-07
389.8,1.2975e-07
390.0,1.2975e-07
390.2,1.2976e-07
390.4,1.2977e-07
390.6,1.2978e-07
390.8,1.2979e-07
391.0,1.2979e-07
391.2,1.298e-07
391.4,1.2981e-07
391.6,1.2982e-07
391.8,1.2983e-07
392.0,1.2983e-07
392.2,1.3574e-07
392.4,1.4191e-07
392.6,1.4837e-07
392.8,1.5512e-07
393.0,1.7693e-07
393.2,2.1799e-07
393.4,2.6859e-07
393.6,3.3094e-07
393.8,4.0775e-07
394.0,5.024e-07
394.2,6.1901e-07
394.4,7.627e-07
394.6,9.3973e-07
394.8,1.1579e-06
395.0,1.4266e-06
395.2,1.7578e-06
395.4,2.1658e-06
395.6,2.6685e-06
395.8,3.2879e-06
396.0,4.051e-06
396.2,4.9913e-06
396.4,6.1499e-06
396.6,7.5774e-06
396.8,5.4211e-06
397.0,3.7916e-06
397.2,2.6519e-06
397.4,1.8548e-06
397.6,1.2972e-06
397.8,9.0731e-07
398.0,6.3458e-07
398.2,4.4383e-07
398.4,3.1042e-07
398.6,2.1711e-07
398.8,1.5185e-07
399.0,1.0621e-07
399.2,7.4282e-08
399.4,5.1954e-08
399.6,3.6337e-08
399.8,2.5415e-08
400.0,1.7775e-08
400.2,1.2432e-08
400.4,1.1496e-08
400.6,1.6159e-08
400.8,2.2713e-08
401.0,3.1926e-08
401.2,4.4875e-08
401.4,6.3078e-08
401.6,8.8664e-08
401.8,1.2463e-07
402.0,1.7518e-07
402.2,2.4623e-07
402.4,3.4611e-07
402.6,4.865e-07
402.8,6.8384e-07
403.0,9.6122e-07
403.2,1.3511e-06
403.4,1.8991e-06
403.6,2.6695e-06
403.8,3.7523e-06
404.0,5.2743e-06
404.2,4.6296e-06
404.4,3.7275e-06
404.6,3.0012e-06
404.8,2.4164e-06
405.0,1.9456e-06
405.2,1.5665e-06
405.4,1.2612e-06
405.6,1.0155e-06
405.8,8.1761e-07
406.0,6.5829e-07
406.2,5.3002e-07
406.4,4.2675e-07
406.6,3.4359e-07
406.8,2.7664e-07
407.0,2.2274e-07
407.2,1.7934e-07
407.4,1.4439e-07
407.6,1.1626e-07
407.8,1.0e-07
408.0,1.0e-07
408.2,1.0e-07
408.4,1.0e-07
408.6,1.0e-07
408.8,1.0e-07
409.0,1.0e-07
409.2,1.0e-07
409.4,1.0e-07
409.6,1.0e-07
409.8,1.0e-07
410.0,1.0e-07
410.2,1.0e-07
410.4,1.0e-07
410.6,1.0e-07
410.8,1.0e-07
411.0,1.0e-07
411.2,1.0e-07
411.4,1.0e-07
411.6,9.4155e-08
411.8,8.7114e-08
412.0,8.0601e-08
412.2,7.4574e-08
412.4,6.8998e-08
412.6,6.3838e-08
412.8,5.9065e-08
413.0,5.4649e-08
413.2,5.0562e-08
413.4,4.6782e-08
413.6,4.3284e-08
413.8,4.0047e-08
414.0,3.7053e-08
414.2,3.4282e-08
414.4,3.1719e-08
414.6,2.9347e-08
414.8,2.7153e-08
415.0,2.5122e-08
415.2,2.4184e-08
415.4,2.6139e-08
415.6,2.8253e-08
415.8,3.0538e-08
416.0,3.3007e-08
416.2,3.5676e-08
416.4,3.8561e-08
416.6,4.1679e-08
416.8,4.5049e-08
417.0,4.8692e-08
417.2,5.2629e-08
417.4,5.6885e-08
417.6,6.1485e-08
417.8,6.6457e-08
418.0,7.183e-08
418.2,7.7639e-08
418.4,8.3917e-08
418.6,9.0702e-08
418.8,9.8037e-08
419.0,1.0e-07
419.2,1.0e-07
419.4,1.0e-07
419.6,1.0e-07
419.8,1.0e-07
420.0,1.0e-07
420.2,1.0e-07
420.4,1.0e-07
420.6,1.0e-07
420.8,1.0e-07
421.0,1.0e-07
421.2,1.0e-07
421.4,1.0e-07
421.6,1.0e-07
421.8,1.0e-07
422.0,1.0e-07
422.2,1.0e-07
422.4,1.0e-07
422.6,1.0e-07
422.8,1.0e-07
423.0,1.0e-07
423.2,1.0e-07
423.4,1.0e-07
423.6,1.0e-07
423.8,1.0e-07
424.0,1.0e-07
424.2,1.0e-07
424.4,1.0e-07
424.6,1.0e-07
424.8,1.0e-07
425.0,1.0e-07
425.2,1.0e-07
425.4,1.0e-07
425.6,1.0e-07
425.8,1.0e-07
426.0,1.0e-07
426.2,1.0e-07
426.4,1.431e-07
426.6,2.3002e-07
426.8,3.6976e-07
427.0,5.9437e-07
427.2,6.0325e-07
427.4,6.1227e-07
427.6,6.2142e-07
427.8,6.3071e-07
428.0,6.4014e-07
428.2,6.4971e-07
428.4,6.5943e-07
428.6,6.6928e-07
428.8,6.7929e-07
429.0,6.8945e-07
429.2,6.9975e-07
429.4,7.1021e-07
429.6,7.2083e-07
429.8,7.3161e-07
430.0,7.4255e-07
430.2,7.4217e-07
430.4,6.5917e-07
430.6,5.8545e-07
430.8,5.1998e-07
431.0,4.6183e-07
431.2,4.1018e-07
431.4,3.6431e-07
431.6,3.2357e-07
431.8,2.8738e-07
432.0,2.5524e-07
432.2,2.267e-07
432.4,2.0135e-07
432.6,1.7883e-07
432.8,1.5883e-07
433.0,1.4107e-07
433.2,1.2529e-07
433.4,1.1128e-07
433.6,9.8835e-08
433.8,8.7782e-08
434.0,8.3936e-08
434.2,8.4759e-08
434.4,8.5589e-08
434.6,8.6428e-08
434.8,8.7275e-08
435.0,8.8131e-08
435.2,8.8994e-08
435.4,8.9867e-08
435.6,9.0747e-08
435.8,9.1637e-08
436.0,9.2535e-08
436.2,9.3442e-08
436.4,9.4358e-08
436.6,9.5282e-08
436.8,9.6216e-08
437.0,9.7159e-08
437.2,9.8111e-08
437.4,9.9073e-08
437.6,1.0e-07
437.8,1.0e-07
438.0,1.0e-07
438.2,1.0e-07
438.4,1.0e-07
438.6,1.0e-07
438.8,1.0e-07
439.0,1.0e-07
439.2,1.0e-07
439.4,1.0e-07
439.6,1.0e-07
439.8,1.0e-07
440.0,1.0e-07
440.2,1.0e-07
440.4,1.0e-07
440.6,1.0e-07
440.8,1.0e-07
441.0,1.0e-07
441.2,1.0e-07
441.4,1.0e-07
441.6,1.0e-07
441.8,1.0e-07
442.0,1.0e-07
442.2,1.0e-07
442.4,1.0e-07
442.6,1.0e-07
442.8,1.0e-07
443.0,1.0e-07
443.2,1.0e-07
443.4,1.0e-07
443.6,1.0e-07
443.8,1.0e-07
444.0,1.0e-07
444.2,1.0e-07
444.4,1.0e-07
444.6,1.0e-07
444.8,1.0e-07
445.0,1.0e-07
445.2,1.0e-07
445.4,1.0e-07
445.6,1.0e-07
445.8,1.0e-07
446.0,1.0e-07
446.2,1.0e-07
446.4,1.0e-07
446.6,1.0e-07
446.8,1.0e-07
447.0,1.0e-07
447.2,1.0e-07
447.4,1.0e-07
447.6,1.0e-07
447.8,1.0e-07
448.0,1.0e-07
448.2,1.0e-07
448.4,1.0e-07
448.6,1.0e-07
448.8,1.0e-07
449.0,1.0e-07
449.2,1.0e-07
449.4,1.0e-07
449.6,1.0e-07
449.8,1.0e-07
450.0,1.0e-07
450.2,1.0e-07
450.4,1.0e-07
450.6,1.0e-07
450.8,1.0e-07
451.0,1.0e-07
451.2,1.0e-07
451.4,1.0e-07
451.6,1.0e-07
451.8,1.0e-07
452.0,1.0e-07
452.2,1.0e-07
452.4,1.0e-07
452.6,1.0e-07
452.8,1.0e-07
453.0,1.0e-07
453.2,1.0e-07
453.4,1.0e-07
453.6,1.0e-07
453.8,1.0e-07
454.0,1.0e-07
454.2,1.0e-07
454.4,1.0e-07
454.6,1.0e-07
454.8,1.0e-07
455.0,1.0e-07
455.2,1.0e-07
455.4,1.0e-07
455.6,1.0e-07
455.8,1.0e-07
456.0,1.0e-07
456.2,9.8868e-08
456.4,9.686e-08
456.6,9.4893e-08
456.8,9.2966e-08
457.0,9.1078e-08
457.2,8.9228e-08
457.4,8.7416e-08
457.6,8.5641e-08
457.8,8.3902e-08
458.0,8.2198e-08
458.2,8.0528e-08
458.4,7.8893e-08
458.6,7.7291e-08
458.8,7.5721e-08
459.0,7.4184e-08
459.2,7.2677e-08
459.4,7.1201e-08
459.6,6.9755e-08
459.8,6.8591e-08
460.0,7.0014e-08
460.2,7.1466e-08
460.4,7.2948e-08
460.6,7.4461e-08
460.8,7.6006e-08
461.0,7.7582e-08
461.2,7.9191e-08
461.4,8.0834e-08
461.6,8.251e-08
461.8,8.4222e-08
462.0,8.5968e-08
462.2,8.7751e-08
462.4,8.9571e-08
462.6,9.1429e-08
462.8,9.3325e-08
463.0,9.5261e-08
463.2,9.7237e-08
463.4,9.9254e-08
463.6,1.0075e-07
463.8,1.0195e-07
464.0,1.0316e-07
464.2,1.0439e-07
464.4,1.0563e-07
464.6,1.0689e-07
464.8,1.0816e-07
465.0,1.0944e-07
465.2,1.1075e-07
465.4,1.1206e-07
465.6,1.134e-07
465.8,1.1474e-07
466.0,1.1611e-07
466.2,1.1749e-07
466.4,1.1889e-07
466.6,1.203e-07
466.8,1.2173e-07
467.0,1.2318e-07
467.2,1.2767e-07
467.4,1.4711e-07
467.6,1.6951e-07
467.8,1.9532e-07
468.0,2.2506e-07
468.2,1.9972e-07
468.4,1.7722e-07
468.6,1.5726e-07
468.8,1.3955e-07
469.0,1.2384e-07
469.2,1.0989e-07
469.4,9.7514e-08
469.6,8.6532e-08
469.8,7.6787e-08
470.0,6.8139e-08
470.2,6.0465e-08
470.4,5.3655e-08
470.6,4.8172e-08
470.8,4.9039e-08
471.0,4.9921e-08
471.2,5.082e-08
471.4,5.1734e-08
471.6,5.2666e-08
471.8,5.3613e-08
472.0,5.4578e-08
472.2,5.5561e-08
472.4,5.6561e-08
472.6,5.7579e-08
472.8,5.8615e-08
473.0,5.967e-08
473.2,6.0744e-08
473.4,6.1837e-08
473.6,6.295e-08
473.8,6.4083e-08
474.0,6.5237e-08
474.2,6.6411e-08
474.4,6.7551e-08
474.6,6.8674e-08
474.8,6.9816e-08
475.0,7.0977e-08
475.2,7.2157e-08
475.4,7.3356e-08
475.6,7.4576e-08
475.8,7.5816e-08
476.0,7.7076e-08
476.2,7.8358e-08
476.4,7.966e-08
476.6,8.0985e-08
476.8,8.2331e-08
477.0,8.37e-08
477.2,8.5091e-08
477.4,8.6506e-08
477.6,8.7944e-08
477.8,8.9406e-08
478.0,9.0495e-08
478.2,8.8827e-08
478.4,8.719e-08
478.6,8.5583e-08
478.8,8.4006e-08
479.0,8.2458e-08
479.2,8.0938e-08
479.4,7.9446e-08
479.6,7.7982e-08
479.8,7.6545e-08
480.0,7.5134e-08
480.2,7.375e-08
480.4,7.2391e-08
480.6,7.1056e-08
480.8,6.9747e-08
481.0,6.8461e-08
481.2,6.72e-08
481.4,6.5961e-08
481.6,6.4746e-08
481.8,6.4441e-08
482.0,6.4587e-08
482.2,6.4733e-08
482.4,6.488e-08
482.6,6.5028e-08
482.8,6.5175e-08
483.0,6.5323e-08
483.2,6.5472e-08
483.4,6.562e-08
483.6,6.5769e-08
483.8,6.5919e-08
484.0,6.6068e-08
484.2,6.6218e-08
484.4,6.6369e-08
484.6,6.6519e-08
484.8,6.667e-08
485.0,6.6822e-08
485.2,6.6973e-08
485.4,6.6992e-08
485.6,6.6512e-08
485.8,6.6035e-08
486.0,6.5562e-08
486.2,6.5092e-08
486.4,6.4625e-08
486.6,6.4162e-08
486.8,6.3702e-08
487.0,6.3245e-08
487.2,6.2792e-08
487.4,6.2342e-08
487.6,6.1895e-08
487.8,6.1451e-08
488.0,6.1011e-08
488.2,6.0574e-08
488.4,6.0139e-08
488.6,5.9708e-08
488.8,5.928e-08
489.0,5.8855e-08
489.2,5.7666e-08
489.4,5.6278e-08
489.6,5.4923e-08
489.8,5.3601e-08
490.0,5.231e-08
490.2,5.1051e-08
490.4,4.9822e-08
490.6,4.8622e-08
490.8,4.7452e-08
491.0,4.631e-08
491.2,4.5195e-08
491.4,4.4107e-08
491.6,4.3045e-08
491.8,4.2009e-08
492.0,4.0997e-08
492.2,4.001e-08
492.4,3.9047e-08
492.6,3.8107e-08
492.8,3.8144e-08
493.0,4.0104e-08
493.2,4.2165e-08
493.4,4.4333e-08
493.6,4.6611e-08
493.8,4.9007e-08
494.0,5.1526e-08
494.2,5.4174e-08
494.4,5.6958e-08
494.6,5.9886e-08
494.8,6.2964e-08
495.0,6.62e-08
495.2,6.9602e-08
495.4,7.318e-08
495.6,7.6941e-08
495.8,8.0896e-08
496.0,8.5053e-08
496.2,8.9425e-08
496.4,9.4021e-08
496.6,9.1743e-08
496.8,8.8902e-08
497.0,8.6149e-08
497.2,8.3481e-08
497.4,8.0896e-08
497.6,7.8391e-08
497.8,7.5963e-08
498.0,7.361e-08
498.2,7.1331e-08
498.4,6.9122e-08
498.6,6.6981e-08
498.8,6.4907e-08
499.0,6.2897e-08
499.2,6.0949e-08
499.4,5.9061e-08
499.6,5.7232e-08
499.8,5.546e-08
500.0,5.3742e-08
500.2,4.6494e-08
500.4,4.0223e-08
500.6,3.4797e-08
500.8,3.0104e-08
501.0,2.9987e-08
501.2,3.0024e-08
501.4,3.006e-08
501.6,3.0097e-08
501.8,3.0134e-08
502.0,3.0171e-08
502.2,3.0208e-08
502.4,3.0245e-08
502.6,3.0282e-08
502.8,3.0319e-08
503.0,3.0356e-08
503.2,3.0393e-08
503.4,3.043e-08
503.6,3.0467e-08
503.8,3.0504e-08
504.0,3.0542e-08
504.2,3.0579e-08
504.4,3.0616e-08
504.6,3.0779e-08
504.8,3.1073e-08
505.0,3.137e-08
505.2,3.167e-08
505.4,3.1972e-08
