## Type: filter
## Name: Semrock Em01-R514
#Typical Measured Spectrum of Semrock Em01-R514 Optical Filter
#Data format:  Wavelength (nm) <tab> Transmission (0 to 1)
wavelength,transmission
300, 0.015453363
300.2, 0.015719988
300.4, 0.015991213
300.6, 0.016267117
300.8, 0.016547782
301, 0.01683329
301.2, 0.017123723
301.4, 0.017419168
301.6, 0.01771971
301.8, 0.018025437
302, 0.018336439
302.2, 0.018447104
302.4, 0.018558437
302.6, 0.018670442
302.8, 0.018783123
303, 0.018896484
303.2, 0.019010529
303.4, 0.019125262
303.6, 0.019240688
303.8, 0.019356811
304, 0.019473634
304.2, 0.018975962
304.4, 0.018491009
304.6, 0.018018449
304.8, 0.017557966
305, 0.017109251
305.2, 0.016672004
305.4, 0.016245931
305.6, 0.015830747
305.8, 0.015426173
306, 0.015031939
306.2, 0.014431434
306.4, 0.013854919
306.6, 0.013301435
306.8, 0.012770062
307, 0.012259916
307.2, 0.01177015
307.4, 0.011299949
307.6, 0.010848533
307.8, 0.010415149
308, 0.009999079
308.2, 0.0109231
308.4, 0.01193251
308.6, 0.0130352
308.8, 0.014239791
309, 0.015555698
309.2, 0.016993209
309.4, 0.018563561
309.6, 0.020279031
309.8, 0.022153028
310, 0.024200202
310.2, 0.027364801
310.4, 0.030943227
310.6, 0.034989594
310.8, 0.039565094
311, 0.04473892
311.2, 0.050589315
311.4, 0.057204751
311.6, 0.064685271
311.8, 0.073143999
312, 0.082708853
312.2, 0.086645737
312.4, 0.090770013
312.6, 0.095090603
312.8, 0.099616849
313, 0.104358541
313.2, 0.109325935
313.4, 0.114529773
313.6, 0.11998131
313.8, 0.125692337
314, 0.131675204
314.2, 0.12812244
314.4, 0.124665534
314.6, 0.121301899
314.8, 0.11802902
315, 0.114844447
315.2, 0.111745798
315.4, 0.108730754
315.6, 0.10579706
315.8, 0.102942521
316, 0.100165001
316.2, 0.091249039
316.4, 0.083126711
316.6, 0.075727375
316.8, 0.068986673
317, 0.06284598
317.2, 0.057251886
317.4, 0.052155739
317.6, 0.047513213
317.8, 0.043283931
318, 0.03943111
318.2, 0.036063519
318.4, 0.032983535
318.6, 0.030166596
318.8, 0.027590235
319, 0.025233907
319.2, 0.02307882
319.4, 0.021107787
319.6, 0.019305089
319.8, 0.017656349
320, 0.016148419
320.2, 0.016782227
320.4, 0.017440912
320.6, 0.01812545
320.8, 0.018836855
321, 0.019576182
321.2, 0.020344527
321.4, 0.021143029
321.6, 0.021972871
321.8, 0.022835283
322, 0.023731544
322.2, 0.025323189
322.4, 0.027021584
322.6, 0.028833888
322.8, 0.03076774
323, 0.032831294
323.2, 0.035033248
323.4, 0.037382884
323.6, 0.039890107
323.8, 0.042565486
324, 0.0454203
324.2, 0.048876613
324.4, 0.052595937
324.6, 0.056598289
324.8, 0.060905204
325, 0.065539859
325.2, 0.070527193
325.4, 0.075894045
325.6, 0.081669294
325.8, 0.087884017
326, 0.094571657
326.2, 0.102102576
326.4, 0.110233196
326.6, 0.119011273
326.8, 0.128488364
327, 0.138720134
327.2, 0.149766679
327.4, 0.161692881
327.6, 0.174568789
327.8, 0.18847003
328, 0.203478253
328.2, 0.211877676
328.4, 0.22062382
328.6, 0.229730998
328.8, 0.239214114
329, 0.249088685
329.2, 0.259370871
329.4, 0.270077497
329.6, 0.281226084
329.8, 0.292834877
330, 0.304922871
330.2, 0.30350797
330.4, 0.302099635
330.6, 0.300697834
330.8, 0.299302538
331, 0.297913717
331.2, 0.29653134
331.4, 0.295155377
331.6, 0.2937858
331.8, 0.292422577
332, 0.29106568
332.2, 0.284099062
332.4, 0.277299189
332.6, 0.270662071
332.8, 0.26418381
333, 0.257860607
333.2, 0.251688748
333.4, 0.245664612
333.6, 0.239784662
333.8, 0.234045449
334, 0.228443602
334.2, 0.228881083
334.4, 0.229319402
334.6, 0.22975856
334.8, 0.230198559
335, 0.2306394
335.2, 0.231081086
335.4, 0.231523618
335.6, 0.231966997
335.8, 0.232411225
336, 0.232856304
336.2, 0.234558027
336.4, 0.236272186
336.6, 0.237998873
336.8, 0.239738178
337, 0.241490194
337.2, 0.243255014
337.4, 0.245032731
337.6, 0.24682344
337.8, 0.248627235
338, 0.250444212
338.2, 0.248367062
338.4, 0.246307139
338.6, 0.244264301
338.8, 0.242238406
339, 0.240229313
339.2, 0.238236884
339.4, 0.236260979
339.6, 0.234301463
339.8, 0.232358198
340, 0.230431051
340.2, 0.226349896
340.4, 0.222341023
340.6, 0.218403151
340.8, 0.214535022
341, 0.210735402
341.2, 0.207003076
341.4, 0.203336854
341.6, 0.199735564
341.8, 0.196198056
342, 0.192723201
342.2, 0.189926515
342.4, 0.187170414
342.6, 0.184454307
342.8, 0.181777615
343, 0.179139765
343.2, 0.176540194
343.4, 0.173978347
343.6, 0.171453676
343.8, 0.168965641
344, 0.166513711
344.2, 0.168529449
344.4, 0.170569588
344.6, 0.172634424
344.8, 0.174724256
345, 0.176839387
345.2, 0.178980122
345.4, 0.181146772
345.6, 0.183339651
345.8, 0.185559075
346, 0.187805367
346.2, 0.186243232
346.4, 0.184694091
346.6, 0.183157834
346.8, 0.181634357
347, 0.180123551
347.2, 0.178625312
347.4, 0.177139535
347.6, 0.175666116
347.8, 0.174204954
348, 0.172755944
348.2, 0.160237699
348.4, 0.148626551
348.6, 0.13785677
348.8, 0.12786739
349, 0.11860186
349.2, 0.110007729
349.4, 0.102036347
349.6, 0.094642586
349.8, 0.087784593
350, 0.081423544
350.2, 0.074517556
350.4, 0.068197303
350.6, 0.062413107
350.8, 0.0571195
351, 0.052274875
351.2, 0.047841149
351.4, 0.043783472
351.6, 0.04006995
351.8, 0.036671392
352, 0.033561086
352.2, 0.035457842
352.4, 0.037461796
352.6, 0.039579008
352.8, 0.041815876
353, 0.044179165
353.2, 0.046676018
353.4, 0.049313985
353.6, 0.052101041
353.8, 0.055045611
354, 0.058156599
354.2, 0.058804871
354.4, 0.059460369
354.6, 0.060123174
354.8, 0.060793367
355, 0.061471031
355.2, 0.062156249
355.4, 0.062849105
355.6, 0.063549685
355.8, 0.064258073
356, 0.064974358
356.2, 0.061497576
356.4, 0.058206837
356.6, 0.055092185
356.8, 0.052144199
357, 0.049353959
357.2, 0.046713026
357.4, 0.044213409
357.6, 0.041847546
357.8, 0.039608282
358, 0.03748884
358.2, 0.036554142
358.4, 0.03564275
358.6, 0.03475408
358.8, 0.033887568
359, 0.03304266
359.2, 0.032218818
359.4, 0.031415516
359.6, 0.030632243
359.8, 0.029868499
360, 0.029123797
360.2, 0.030442499
360.4, 0.03182091
360.6, 0.033261735
360.8, 0.034767799
361, 0.036342057
361.2, 0.037987595
361.4, 0.039707642
361.6, 0.041505572
361.8, 0.04338491
362, 0.045349343
362.2, 0.047150293
362.4, 0.049022765
362.6, 0.050969597
362.8, 0.052993744
363, 0.055098275
363.2, 0.057286383
363.4, 0.059561387
363.6, 0.061926737
363.8, 0.064386023
364, 0.066942974
364.2, 0.068773717
364.4, 0.070654528
364.6, 0.072586775
364.8, 0.074571864
365, 0.076611241
365.2, 0.078706391
365.4, 0.080858839
365.6, 0.083070151
365.8, 0.085341938
366, 0.087675853
366.2, 0.08987293
366.4, 0.092125063
366.6, 0.094433633
366.8, 0.096800054
367, 0.099225775
367.2, 0.101712282
367.4, 0.104261099
367.6, 0.106873787
367.8, 0.109551947
368, 0.112297219
368.2, 0.116303665
368.4, 0.12045305
368.6, 0.124750473
368.8, 0.129201216
369, 0.133810748
369.2, 0.138584736
369.4, 0.143529047
369.6, 0.148649756
369.8, 0.153953157
370, 0.159445769
370.2, 0.165194772
370.4, 0.171151063
370.6, 0.177322114
370.8, 0.18371567
371, 0.190339752
371.2, 0.197202674
371.4, 0.204313047
371.6, 0.211679792
371.8, 0.219312154
372, 0.227219709
372.2, 0.233428619
372.4, 0.23980719
372.6, 0.246360059
372.8, 0.25309199
373, 0.260007874
373.2, 0.267112739
373.4, 0.274411748
373.6, 0.281910207
373.8, 0.289613565
374, 0.297527423
374.2, 0.30509311
374.4, 0.312851182
374.6, 0.32080653
374.8, 0.328964171
375, 0.337329249
375.2, 0.345907039
375.4, 0.35470295
375.6, 0.363722527
375.8, 0.372971459
376, 0.382455579
376.2, 0.394702703
376.4, 0.407342008
376.6, 0.420386054
376.8, 0.4338478
377, 0.447740624
377.2, 0.462078328
377.4, 0.476875159
377.6, 0.492145819
377.8, 0.507905482
378, 0.524169805
378.2, 0.523447464
378.4, 0.522726118
378.6, 0.522005766
378.8, 0.521286406
379, 0.520568038
379.2, 0.51985066
379.4, 0.519134271
379.6, 0.518418869
379.8, 0.517704452
380, 0.516991021
380.2, 0.499043726
380.4, 0.48171947
380.6, 0.464996624
380.8, 0.44885431
381, 0.433272375
381.2, 0.418231366
381.4, 0.403712503
381.6, 0.389697662
381.8, 0.376169344
382, 0.363110661
382.2, 0.349528103
382.4, 0.336453616
382.6, 0.323868194
382.8, 0.311753545
383, 0.300092057
383.2, 0.28886678
383.4, 0.278061397
383.6, 0.267660201
383.8, 0.257648074
384, 0.248010461
384.2, 0.243134227
384.4, 0.238353866
384.6, 0.233667493
384.8, 0.229073262
385, 0.224569359
385.2, 0.22015401
385.4, 0.215825472
385.6, 0.21158204
385.8, 0.207422039
386, 0.20334383
386.2, 0.194918922
386.4, 0.186843072
386.6, 0.17910182
386.8, 0.171681303
387, 0.164568231
387.2, 0.157749866
387.4, 0.151213999
387.6, 0.144948925
387.8, 0.138943425
388, 0.133186743
388.2, 0.1243805
388.4, 0.116156522
388.6, 0.108476309
388.8, 0.101303908
389, 0.094605743
389.2, 0.088350457
389.4, 0.082508768
389.6, 0.077053328
389.8, 0.071958599
390, 0.067200731
390.2, 0.065134907
390.4, 0.063132589
390.6, 0.061191824
390.8, 0.059310721
391, 0.057487444
391.2, 0.055720217
391.4, 0.054007317
391.6, 0.052347073
391.8, 0.050737866
392, 0.049178129
392.2, 0.050919754
392.4, 0.052723059
392.6, 0.054590227
392.8, 0.05652352
393, 0.05852528
393.2, 0.060597932
393.4, 0.062743985
393.6, 0.064966041
393.8, 0.067266789
394, 0.069649018
394.2, 0.072349028
394.4, 0.075153706
394.6, 0.07806711
394.8, 0.081093454
395, 0.084237118
395.2, 0.087502649
395.4, 0.090894771
395.6, 0.094418392
395.8, 0.098078609
396, 0.101880719
396.2, 0.100833699
396.4, 0.09979744
396.6, 0.09877183
396.8, 0.09775676
397, 0.096752122
397.2, 0.095757809
397.4, 0.094773714
397.6, 0.093799733
397.8, 0.092835761
398, 0.091881695
398.2, 0.101380573
398.4, 0.11186146
398.6, 0.123425878
398.8, 0.136185845
399, 0.150264957
399.2, 0.16579959
399.4, 0.182940219
399.6, 0.201852874
399.8, 0.22272075
400, 0.24574598
400.2, 0.23458437
400.4, 0.15815257
400.6, 0.07752948
400.8, 0.0327948
401, 0.01703305
401.2, 0.01078166
401.4, 0.01098822
401.6, 0.011198737
401.8, 0.011413288
402, 0.011631949
402.2, 0.011854799
402.4, 0.012081919
402.6, 0.01231339
402.8, 0.02354377
403, 0.04678142
403.2, 0.07496547
403.4, 0.08675484
403.6, 0.06932607
403.8, 0.03876028
404, 0.0171944
404.2, 0.016995839
404.4, 0.016799571
404.6, 0.01660557
404.8, 0.016413809
405, 0.016224262
405.2, 0.016036904
405.4, 0.01585171
405.6, 0.03547684
405.8, 0.06530729
406, 0.08423945
406.2, 0.07362294
406.4, 0.04273122
406.6, 0.01743201
406.8, 0.017227101
407, 0.0170246
407.2, 0.016824479
407.4, 0.016626711
407.6, 0.016431268
407.8, 0.016238122
408, 0.016047246
408.2, 0.015858615
408.4, 0.0156722
408.6, 0.04672782
408.8, 0.10166764
409, 0.14139552
409.2, 0.12558408
409.4, 0.06747712
409.6, 0.02116936
409.8, 0.019655934
410, 0.018250706
410.2, 0.016945939
410.4, 0.015734451
410.6, 0.014609574
410.8, 0.013565117
411, 0.012595329
411.2, 0.011694872
411.4, 0.01085879
411.6, 0.01968014
411.8, 0.02169966
412, 0.006646898
412.2, 0.011797209
412.4, 0.009795953
412.6, 0.008134186
412.8, 0.006754318
413, 0.005608528
413.2, 0.004657108
413.4, 0.003867085
413.6, 0.00321108
413.8, 0.002666359
414, 0.002214043
414.2, 0.001942372
414.4, 0.001704037
414.6, 0.001494946
414.8, 0.001311511
415, 0.001150584
415.2, 0.001009404
415.4, 0.000885547
415.6, 0.000776887
415.8, 0.000681561
416, 0.000597931
416.2, 0.000474203
416.4, 0.000376078
416.6, 0.000298257
416.8, 0.00023654
417, 0.000187593
417.2, 0.000148775
417.4, 0.00011799
417.6, 9.36E-05
417.8, 7.42E-05
418, 5.89E-05
418.2, 4.20E-05
418.4, 3.00E-05
418.6, 2.14E-05
418.8, 1.53E-05
419, 1.09E-05
419.2, 7.82E-06
419.4, 5.58E-06
419.6, 3.99E-06
419.8, 2.85E-06
420, 2.04E-06
420.2, 1.53E-06
420.4, 1.15E-06
420.6, 8.62E-07
420.8, 6.48E-07
421, 4.86E-07
421.2, 3.65E-07
421.4, 2.74E-07
421.6, 2.06E-07
421.8, 1.55E-07
422, 1.16E-07
422.2, 1.24E-07
422.4, 1.32E-07
422.6, 1.41E-07
422.8, 1.50E-07
423, 1.60E-07
423.2, 1.71E-07
423.4, 1.82E-07
423.6, 1.94E-07
423.8, 2.07E-07
424, 2.21E-07
424.2, 2.07E-07
424.4, 1.94E-07
424.6, 1.82E-07
424.8, 1.71E-07
425, 1.60E-07
425.2, 1.50E-07
425.4, 1.41E-07
425.6, 1.32E-07
425.8, 1.24E-07
426, 1.16E-07
426.2, 1.12E-07
426.4, 1.08E-07
426.6, 1.04E-07
426.8, 1.01E-07
427, 9.72E-08
427.2, 9.38E-08
427.4, 9.05E-08
427.6, 8.73E-08
427.8, 8.42E-08
428, 8.13E-08
428.2, 8.30E-08
428.4, 8.47E-08
428.6, 8.65E-08
428.8, 8.83E-08
429, 9.02E-08
429.2, 9.20E-08
429.4, 9.40E-08
429.6, 9.59E-08
429.8, 9.79E-08
430, 1.00E-07
430.2, 1.11E-07
430.4, 1.24E-07
430.6, 1.38E-07
430.8, 1.53E-07
431, 1.70E-07
431.2, 1.89E-07
431.4, 2.11E-07
431.6, 2.34E-07
431.8, 2.61E-07
432, 2.90E-07
432.2, 2.61E-07
432.4, 2.34E-07
432.6, 2.11E-07
432.8, 1.89E-07
433, 1.70E-07
433.2, 1.53E-07
433.4, 1.38E-07
433.6, 1.24E-07
433.8, 1.11E-07
434, 1.00E-07
434.2, 1.00E-07
434.4, 1.00E-07
434.6, 1.00E-07
434.8, 1.00E-07
435, 1.00E-07
435.2, 1.00E-07
435.4, 1.00E-07
435.6, 1.00E-07
435.8, 1.00E-07
436, 1.00E-07
436.2, 1.00E-07
436.4, 1.00E-07
436.6, 1.00E-07
436.8, 1.00E-07
437, 1.00E-07
437.2, 1.00E-07
437.4, 1.00E-07
437.6, 1.00E-07
437.8, 1.00E-07
438, 1.00E-07
438.2, 1.00E-07
438.4, 1.00E-07
438.6, 1.00E-07
438.8, 1.00E-07
439, 1.00E-07
439.2, 1.00E-07
439.4, 1.00E-07
439.6, 1.00E-07
439.8, 1.00E-07
440, 1.00E-07
440.2, 2.54E-07
440.4, 6.47E-07
440.6, 8.01E-07
440.8, 4.83E-07
441, 2.91E-07
441.2, 1.75E-07
441.4, 1.06E-07
441.6, 6.37E-08
441.8, 3.84E-08
442, 2.31E-08
442.2, 1.15E-07
442.4, 5.71E-07
442.6, 1.26E-06
442.8, 1.24E-06
443, 1.22E-06
443.2, 1.20E-06
443.4, 1.18E-06
443.6, 1.22E-06
443.8, 8.14E-07
444, 1.27E-07
444.2, 1.30E-06
444.4, 1.32E-06
444.6, 1.35E-06
444.8, 1.37E-06
445, 1.40E-06
445.2, 1.17E-06
445.4, 1.07E-06
445.6, 1.04E-06
445.8, 5.94E-07
446, 5.78E-08
446.2, 6.35E-07
446.4, 1.34E-06
446.6, 1.63E-06
446.8, 1.98E-06
447, 2.41E-06
447.2, 2.37E-06
447.4, 1.59E-06
447.6, 1.36E-06
447.8, 5.90E-07
448, 1.16E-08
448.2, 1.39E-06
448.4, 1.39E-06
448.6, 1.39E-06
448.8, 1.39E-06
449, 1.40E-06
449.2, 1.40E-06
449.4, 1.40E-06
449.6, 1.40E-06
449.8, 8.29E-07
450, 1.00E-07
450.2, 1.30E-06
450.4, 1.26E-06
450.6, 1.23E-06
450.8, 1.21E-06
451, 1.21E-06
451.2, 1.23E-06
451.4, 1.19E-06
451.6, 1.15E-06
451.8, 7.03E-07
452, 1.00E-07
452.2, 1.18E-06
452.4, 1.21E-06
452.6, 1.20E-06
452.8, 1.21E-06
453, 1.21E-06
453.2, 1.22E-06
453.4, 1.22E-06
453.6, 1.23E-06
453.8, 8.54E-07
454, 1.96E-07
454.2, 1.07E-06
454.4, 1.08E-06
454.6, 1.08E-06
454.8, 1.09E-06
455, 1.10E-06
455.2, 1.11E-06
455.4, 1.05E-06
455.6, 1.02E-06
455.8, 6.39E-07
456, 1.00E-07
456.2, 1.18E-06
456.4, 1.16E-06
456.6, 1.13E-06
456.8, 1.11E-06
457, 1.08E-06
457.2, 1.06E-06
457.4, 1.04E-06
457.6, 6.44E-07
457.8, 2.54E-07
458, 1.00E-07
458.2, 1.60E-07
458.4, 2.55E-07
458.6, 4.07E-07
458.8, 6.51E-07
459, 1.04E-06
459.2, 1.04E-06
459.4, 1.04E-06
459.6, 1.04E-06
459.8, 6.50E-07
460, 1.00E-07
460.2, 1.59E-07
460.4, 2.53E-07
460.6, 4.02E-07
460.8, 6.38E-07
461, 1.01E-06
461.2, 6.38E-07
461.4, 4.02E-07
461.6, 2.53E-07
461.8, 1.59E-07
462, 1.00E-07
462.2, 1.03E-06
462.4, 1.05E-06
462.6, 1.07E-06
462.8, 9.70E-07
463, 6.25E-07
463.2, 4.02E-07
463.4, 2.59E-07
463.6, 1.67E-07
463.8, 1.07E-07
464, 6.91E-08
464.2, 1.08E-07
464.4, 1.68E-07
464.6, 2.63E-07
464.8, 4.10E-07
465, 6.40E-07
465.2, 1.00E-06
465.4, 6.89E-07
465.6, 3.62E-07
465.8, 1.90E-07
466, 1.00E-07
466.2, 1.00E-07
466.4, 1.00E-07
466.6, 1.00E-07
466.8, 1.00E-07
467, 1.00E-07
467.2, 1.00E-07
467.4, 1.00E-07
467.6, 1.00E-07
467.8, 1.00E-07
468, 1.00E-07
468.2, 1.00E-07
468.4, 1.00E-07
468.6, 1.00E-07
468.8, 1.00E-07
469, 1.00E-07
469.2, 1.00E-07
469.4, 1.00E-07
469.6, 1.00E-07
469.8, 1.00E-07
470, 1.00E-07
470.2, 1.47E-07
470.4, 2.15E-07
470.6, 3.15E-07
470.8, 4.62E-07
471, 6.76E-07
471.2, 9.92E-07
471.4, 6.65E-07
471.6, 3.44E-07
471.8, 1.78E-07
472, 9.19E-08
472.2, 9.91E-08
472.4, 1.07E-07
472.6, 1.15E-07
472.8, 1.24E-07
473, 1.34E-07
473.2, 1.44E-07
473.4, 1.56E-07
473.6, 1.68E-07
473.8, 1.81E-07
474, 1.95E-07
474.2, 2.89E-07
474.4, 4.28E-07
474.6, 6.35E-07
474.8, 9.41E-07
475, 1.40E-06
475.2, 1.11E-06
475.4, 6.53E-07
475.6, 3.49E-07
475.8, 1.87E-07
476, 1.00E-07
476.2, 1.04E-07
476.4, 1.08E-07
476.6, 1.13E-07
476.8, 1.17E-07
477, 1.22E-07
477.2, 1.27E-07
477.4, 1.32E-07
477.6, 1.37E-07
477.8, 1.43E-07
478, 1.49E-07
478.2, 1.42E-07
478.4, 1.35E-07
478.6, 1.29E-07
478.8, 1.23E-07
479, 1.17E-07
479.2, 1.11E-07
479.4, 1.06E-07
479.6, 1.01E-07
479.8, 9.61E-08
480, 9.15E-08
480.2, 8.54E-08
480.4, 7.97E-08
480.6, 7.43E-08
480.8, 6.93E-08
481, 6.47E-08
481.2, 6.03E-08
481.4, 5.63E-08
481.6, 5.25E-08
481.8, 4.90E-08
482, 4.57E-08
482.2, 1.08E-06
482.4, 1.08E-06
482.6, 1.08E-06
482.8, 1.08E-06
483, 1.07E-06
483.2, 1.07E-06
483.4, 1.09E-06
483.6, 1.11E-06
483.8, 5.14E-07
484, 2.29E-08
484.2, 5.05E-08
484.4, 1.11E-07
484.6, 2.46E-07
484.8, 5.43E-07
485, 1.20E-06
485.2, 1.18E-06
485.4, 1.17E-06
485.6, 1.15E-06
485.8, 6.72E-07
486, 8.00E-08
486.2, 1.59E-07
486.4, 3.14E-07
486.6, 6.23E-07
486.8, 1.14E-06
487, 1.62E-06
487.2, 1.12E-06
487.4, 1.27E-06
487.6, 8.60E-07
487.8, 2.93E-07
488, 1.00E-07
488.2, 1.18E-06
488.4, 1.10E-06
488.6, 1.06E-06
488.8, 1.07E-06
489, 1.07E-06
489.2, 1.07E-06
489.4, 1.05E-06
489.6, 1.08E-06
489.8, 7.41E-07
490, 1.26E-07
490.2, 1.18E-06
490.4, 1.21E-06
490.6, 1.39E-06
490.8, 1.48E-06
491, 1.27E-06
491.2, 1.30E-06
491.4, 1.33E-06
491.6, 1.36E-06
491.8, 6.98E-07
492, 4.57E-08
492.2, 1.11E-06
492.4, 1.15E-06
492.6, 1.18E-06
492.8, 1.22E-06
493, 1.26E-06
493.2, 1.06E-06
493.4, 6.11E-07
493.6, 3.10E-07
493.8, 1.57E-07
494, 7.99E-08
494.2, 1.26E-06
494.4, 1.32E-06
494.6, 1.36E-06
494.8, 1.27E-06
495, 1.20E-06
495.2, 1.37E-06
495.4, 1.64E-06
495.6, 1.77E-06
495.8, 1.16E-06
496, 2.51E-07
496.2, 1.09E-06
496.4, 1.29E-06
496.6, 1.37E-06
496.8, 1.20E-06
497, 1.20E-06
497.2, 1.21E-06
497.4, 1.17E-06
497.6, 8.18E-07
497.8, 4.21E-07
498, 2.17E-07
498.2, 4.20E-07
498.4, 8.12E-07
498.6, 1.31E-06
498.8, 1.50E-06
499, 1.04E-06
499.2, 1.14E-06
499.4, 1.25E-06
499.6, 1.24E-06
499.8, 8.77E-07
500, 3.08E-07
500.2, 1.98E-06
500.4, 1.78E-06
500.6, 1.30E-06
500.8, 1.13E-06
501, 1.82E-06
501.2, 1.59E-06
501.4, 1.38E-06
501.6, 1.20E-06
501.8, 1.01E-06
502, 7.53E-07
502.2, 1.55E-06
502.4, 1.40E-06
502.6, 1.28E-06
502.8, 1.26E-06
503, 1.23E-06
503.2, 1.20E-06
503.4, 1.18E-06
503.6, 1.29E-06
503.8, 1.25E-06
504, 5.93E-07
504.2, 1.50E-06
504.4, 1.56E-06
504.6, 1.46E-06
504.8, 1.29E-06
505, 1.33E-06
505.2, 1.30E-06
505.4, 1.19E-06
505.6, 1.08E-06
505.8, 9.56E-07
506, 7.87E-07
506.2, 1.07E-06
506.4, 1.14E-06
506.6, 1.34E-06
506.8, 1.46E-06
507, 1.32E-06
507.2, 1.12E-06
507.4, 1.02E-06
507.6, 9.59E-07
507.8, 8.99E-07
508, 8.43E-07
508.2, 1.15E-06
508.4, 1.23E-06
508.6, 1.21E-06
508.8, 1.19E-06
509, 1.17E-06
509.2, 1.07E-06
509.4, 1.09E-06
509.6, 1.12E-06
509.8, 1.13E-06
510, 1.15E-06
510.2, 1.16E-06
510.4, 1.14E-06
510.6, 1.11E-06
510.8, 1.08E-06
511, 1.05E-06
511.2, 1.02E-06
511.4, 1.08E-06
511.6, 1.23E-06
511.8, 1.45E-06
512, 1.72E-06
512.2, 2.03E-06
512.4, 1.40E-06
512.6, 1.06E-06
512.8, 1.05E-06
513, 1.04E-06
513.2, 1.03E-06
513.4, 1.04E-06
513.6, 1.06E-06
513.8, 1.07E-06
514, 1.09E-06
514.2, 1.11E-06
514.4, 1.13E-06
514.6, 1.27E-06
514.8, 1.51E-06
515, 1.61E-06
515.2, 2.18E-06
515.4, 3.25E-06
515.6, 5.18E-06
515.8, 8.80E-06
516, 1.63E-05
516.2, 2.57E-05
516.4, 3.85E-05
516.6, 5.50E-05
516.8, 7.54E-05
517, 0.000100945
517.2, 0.000134122
517.4, 0.000179534
517.6, 0.000244668
517.8, 0.000342815
518, 0.000498391
518.2, 0.000771701
518.4, 0.001252924
518.6, 0.002126563
518.8, 0.003790435
519, 0.007181795
519.2, 0.01047097
519.4, 0.02107146
519.6, 0.04342571
519.8, 0.0887045
520, 0.17242866
520.2, 0.30127153
520.4, 0.45772704
520.6, 0.60260462
520.8, 0.70499154
521, 0.76294106
521.2, 0.79750455
521.4, 0.82656141
521.6, 0.8561196
521.8, 0.88324939
522, 0.90477494
522.2, 0.92163524
522.4, 0.93335562
522.6, 0.94173803
522.8, 0.9477156
523, 0.95470598
523.2, 0.96202024
523.4, 0.96802445
523.6, 0.97144256
523.8, 0.97438192
524, 0.97674362
524.2, 0.9762657
524.4, 0.97378852
524.6, 0.97125457
524.8, 0.97084007
525, 0.97016151
525.2, 0.96928567
525.4, 0.96966648
525.6, 0.9725093
525.8, 0.97451462
526, 0.9772506
526.2, 0.97803781
526.4, 0.98023784
526.6, 0.98272771
526.8, 0.98388173
527, 0.98327696
527.2, 0.98356272
527.4, 0.98449662
527.6, 0.98523672
527.8, 0.98397087
528, 0.98446357
528.2, 0.9845914
528.4, 0.98452755
528.6, 0.98378745
528.8, 0.98264482
529, 0.98133201
529.2, 0.97978929
529.4, 0.97771234
529.6, 0.97573662
529.8, 0.97364559
530, 0.9710627
530.2, 0.96952362
530.4, 0.96796957
530.6, 0.96668799
530.8, 0.9674708
