#Typical Measured Spectrum of Semrock FF01-466/40 Optical Filter
#For wavelengths between 320 and 1120 nm, values near or below 3e-7 (Optical Density 6.5) are measurement noise limited.
#For wavelengths < 320 nm and > 1120 nm, values near or below 3e-6 (Optical Density 5.5) are measurement noise limited. 
#Data format:  Wavelength (nm) <tab> Transmission (0 to 1)
#Type: Filter
#Name: Semrock FF01-466_40
wavelength,transmission
265.0, 2.1408e-05
265.2, 1.9833e-05
265.4, 1.8375e-05
265.6, 1.7023e-05
265.8, 1.5772e-05
266.0, 1.4612e-05
266.2, 1.3537e-05
266.4, 1.2542e-05
266.6, 1.1619e-05
266.8, 1.0765e-05
267.0, 1.0125e-05
267.2, 1.0251e-05
267.4, 1.0378e-05
267.6, 1.0507e-05
267.8, 1.0638e-05
268.0, 1.077e-05
268.2, 1.0904e-05
268.4, 1.104e-05
268.6, 1.1177e-05
268.8, 1.1316e-05
269.0, 1.1457e-05
269.2, 1.1599e-05
269.4, 1.1744e-05
269.6, 1.189e-05
269.8, 1.2037e-05
270.0, 1.2187e-05
270.2, 1.2339e-05
270.4, 1.2492e-05
270.6, 1.2648e-05
270.8, 1.1536e-05
271.0, 9.5733e-06
271.2, 7.9448e-06
271.4, 6.5934e-06
271.6, 5.4718e-06
271.8, 4.541e-06
272.0, 3.7685e-06
272.2, 3.1275e-06
272.4, 2.5955e-06
272.6, 2.154e-06
272.8, 1.7876e-06
273.0, 1.4835e-06
273.2, 1.2311e-06
273.4, 1.0217e-06
273.6, 8.479e-07
273.8, 7.0367e-07
274.0, 5.8397e-07
274.2, 4.8463e-07
274.4, 4.0219e-07
274.6, 6.7005e-07
274.8, 1.2114e-06
275.0, 2.1901e-06
275.2, 1.0081e-06
275.4, 4.6398e-07
275.6, 3.6907e-07
275.8, 3.6511e-07
276.0, 3.6119e-07
276.2, 3.5731e-07
276.4, 3.5347e-07
276.6, 3.4968e-07
276.8, 3.4592e-07
277.0, 3.4221e-07
277.2, 3.3854e-07
277.4, 3.349e-07
277.6, 3.3131e-07
277.8, 3.2775e-07
278.0, 3.2423e-07
278.2, 3.2075e-07
278.4, 3.1731e-07
278.6, 3.139e-07
278.8, 3.1053e-07
279.0, 3.072e-07
279.2, 3.038e-07
279.4, 2.9928e-07
279.6, 2.9483e-07
279.8, 2.9044e-07
280.0, 2.8612e-07
280.2, 2.8187e-07
280.4, 2.7767e-07
280.6, 2.7354e-07
280.8, 2.6948e-07
281.0, 2.6547e-07
281.2, 2.6152e-07
281.4, 2.5763e-07
281.6, 2.538e-07
281.8, 2.5002e-07
282.0, 2.463e-07
282.2, 2.4264e-07
282.4, 2.3903e-07
282.6, 2.3547e-07
282.8, 2.3197e-07
283.0, 2.3752e-07
283.2, 2.5498e-07
283.4, 2.7371e-07
283.6, 2.9382e-07
283.8, 3.1541e-07
284.0, 3.3859e-07
284.2, 3.6347e-07
284.4, 3.9017e-07
284.6, 4.1884e-07
284.8, 4.4961e-07
285.0, 4.8265e-07
285.2, 3.1012e-07
285.4, 1.9926e-07
285.6, 1.7806e-07
285.8, 1.7511e-07
286.0, 1.7221e-07
286.2, 1.6936e-07
286.4, 1.6655e-07
286.6, 1.6379e-07
286.8, 1.6108e-07
287.0, 1.5841e-07
287.2, 1.5578e-07
287.4, 1.532e-07
287.6, 1.5066e-07
287.8, 1.4817e-07
288.0, 1.4571e-07
288.2, 1.433e-07
288.4, 1.4092e-07
288.6, 1.3859e-07
288.8, 1.3629e-07
289.0, 1.3404e-07
289.2, 1.3529e-07
289.4, 1.5822e-07
289.6, 1.8504e-07
289.8, 2.1641e-07
290.0, 2.5309e-07
290.2, 2.96e-07
290.4, 3.4617e-07
290.6, 4.0486e-07
290.8, 4.7349e-07
291.0, 5.5375e-07
291.2, 6.4763e-07
291.4, 7.5741e-07
291.6, 8.8581e-07
291.8, 1.036e-06
292.0, 1.2116e-06
292.2, 1.417e-06
292.4, 1.6572e-06
292.6, 1.9381e-06
292.8, 2.2666e-06
293.0, 2.043e-06
293.2, 1.4616e-06
293.4, 1.0456e-06
293.6, 7.4805e-07
293.8, 5.3517e-07
294.0, 3.8287e-07
294.2, 2.7391e-07
294.4, 1.9596e-07
294.6, 1.4019e-07
294.8, 1.0029e-07
295.0, 7.1752e-08
295.2, 7.4556e-08
295.4, 7.7469e-08
295.6, 8.0497e-08
295.8, 8.3642e-08
296.0, 8.6911e-08
296.2, 9.0307e-08
296.4, 9.3836e-08
296.6, 9.7503e-08
296.8, 1.0131e-07
297.0, 1.0527e-07
297.2, 1.0939e-07
297.4, 1.1366e-07
297.6, 1.181e-07
297.8, 1.2272e-07
298.0, 1.312e-07
298.2, 1.4681e-07
298.4, 1.6427e-07
298.6, 1.8381e-07
298.8, 2.0568e-07
299.0, 2.3014e-07
299.2, 2.5752e-07
299.4, 2.8815e-07
299.6, 3.2243e-07
299.8, 3.6079e-07
300.0, 4.037e-07
300.2, 4.5172e-07
300.4, 5.0546e-07
300.6, 5.6559e-07
300.8, 6.3287e-07
301.0, 7.0815e-07
301.2, 7.9238e-07
301.4, 8.8664e-07
301.6, 9.9211e-07
301.8, 9.2324e-07
302.0, 8.1185e-07
302.2, 7.139e-07
302.4, 6.2777e-07
302.6, 5.5203e-07
302.8, 4.8542e-07
303.0, 4.2686e-07
303.2, 3.7536e-07
303.4, 3.3007e-07
303.6, 2.9025e-07
303.8, 2.5523e-07
304.0, 2.2443e-07
304.2, 1.9736e-07
304.4, 1.7354e-07
304.6, 1.5261e-07
304.8, 1.3419e-07
305.0, 1.18e-07
305.2, 1.019e-07
305.4, 8.8001e-08
305.6, 8.21e-08
305.8, 9.3434e-08
306.0, 1.0633e-07
306.2, 1.2101e-07
306.4, 1.3771e-07
306.6, 1.5672e-07
306.8, 1.7836e-07
307.0, 2.0298e-07
307.2, 2.31e-07
307.4, 2.6289e-07
307.6, 2.9918e-07
307.8, 3.4048e-07
308.0, 3.8748e-07
308.2, 4.4097e-07
308.4, 5.0184e-07
308.6, 5.7112e-07
308.8, 6.4996e-07
309.0, 7.3968e-07
309.2, 8.4179e-07
309.4, 8.0698e-07
309.6, 7.0246e-07
309.8, 6.1148e-07
310.0, 5.3228e-07
310.2, 4.6334e-07
310.4, 4.0332e-07
310.6, 3.5108e-07
310.8, 3.0561e-07
311.0, 2.6603e-07
311.2, 2.3157e-07
311.4, 2.0158e-07
311.6, 1.7547e-07
311.8, 1.5274e-07
312.0, 1.3296e-07
312.2, 1.1574e-07
312.4, 1.0075e-07
312.6, 8.7698e-08
312.8, 7.6339e-08
313.0, 6.6615e-08
313.2, 7.4108e-08
313.4, 8.2444e-08
313.6, 9.1717e-08
313.8, 1.0203e-07
314.0, 1.1351e-07
314.2, 1.2628e-07
314.4, 1.4048e-07
314.6, 1.5629e-07
314.8, 1.7386e-07
315.0, 1.9342e-07
315.2, 2.1518e-07
315.4, 2.3938e-07
315.6, 2.6631e-07
315.8, 2.9626e-07
316.0, 3.2959e-07
316.2, 3.6666e-07
316.4, 4.079e-07
316.6, 4.5378e-07
316.8, 4.6304e-07
317.0, 4.1276e-07
317.2, 3.6794e-07
317.4, 3.2799e-07
317.6, 2.9238e-07
317.8, 2.6063e-07
318.0, 2.3233e-07
318.2, 2.071e-07
318.4, 1.8462e-07
318.6, 1.6457e-07
318.8, 1.467e-07
319.0, 1.3077e-07
319.2, 1.1657e-07
319.4, 1.0391e-07
319.6, 9.2631e-08
319.8, 8.2573e-08
320.0, 7.3607e-08
320.2, 6.5615e-08
320.4, 5.849e-08
320.6, 5.6846e-08
320.8, 5.6653e-08
321.0, 5.646e-08
321.2, 5.6268e-08
321.4, 5.6076e-08
321.6, 5.5885e-08
321.8, 5.5695e-08
322.0, 5.5506e-08
322.2, 5.5317e-08
322.4, 5.5128e-08
322.6, 5.4941e-08
322.8, 5.4754e-08
323.0, 5.4567e-08
323.2, 5.4381e-08
323.4, 5.4196e-08
323.6, 5.4012e-08
323.8, 5.3828e-08
324.0, 5.3645e-08
324.2, 5.3389e-08
324.4, 5.277e-08
324.6, 5.2158e-08
324.8, 5.1552e-08
325.0, 5.0954e-08
325.2, 5.0363e-08
325.4, 4.9779e-08
325.6, 4.9201e-08
325.8, 4.863e-08
326.0, 4.8066e-08
326.2, 4.7508e-08
326.4, 4.6957e-08
326.6, 4.6412e-08
326.8, 4.5874e-08
327.0, 4.5341e-08
327.2, 4.4815e-08
327.4, 4.4295e-08
327.6, 4.3781e-08
327.8, 4.3273e-08
328.0, 4.5788e-08
328.2, 5.1005e-08
328.4, 5.6817e-08
328.6, 6.3291e-08
328.8, 7.0502e-08
329.0, 7.8536e-08
329.2, 8.7484e-08
329.4, 9.7453e-08
329.6, 1.0856e-07
329.8, 1.2093e-07
330.0, 1.347e-07
330.2, 1.5005e-07
330.4, 1.6715e-07
330.6, 1.862e-07
330.8, 2.0741e-07
331.0, 2.3105e-07
331.2, 2.5737e-07
331.4, 2.867e-07
331.6, 3.1936e-07
331.8, 2.9699e-07
332.0, 2.7491e-07
332.2, 2.5446e-07
332.4, 2.3554e-07
332.6, 2.1803e-07
332.8, 2.0182e-07
333.0, 1.8681e-07
333.2, 1.7292e-07
333.4, 1.6006e-07
333.6, 1.4816e-07
333.8, 1.3714e-07
334.0, 1.2694e-07
334.2, 1.175e-07
334.4, 1.0877e-07
334.6, 1.0068e-07
334.8, 9.3193e-08
335.0, 8.6263e-08
335.2, 5.9076e-08
335.4, 4.0458e-08
335.6, 3.1015e-08
335.8, 3.0743e-08
336.0, 3.0474e-08
336.2, 3.0207e-08
336.4, 2.9942e-08
336.6, 2.9679e-08
336.8, 2.9419e-08
337.0, 2.9161e-08
337.2, 2.8906e-08
337.4, 2.8653e-08
337.6, 2.8401e-08
337.8, 2.8153e-08
338.0, 2.7906e-08
338.2, 2.7661e-08
338.4, 2.7419e-08
338.6, 2.7179e-08
338.8, 2.694e-08
339.0, 2.6704e-08
339.2, 2.647e-08
339.4, 2.6281e-08
339.6, 2.6111e-08
339.8, 2.5942e-08
340.0, 2.5775e-08
340.2, 2.5609e-08
340.4, 2.5443e-08
340.6, 2.5279e-08
340.8, 2.5116e-08
341.0, 2.4954e-08
341.2, 2.4793e-08
341.4, 2.4632e-08
341.6, 2.4473e-08
341.8, 2.4315e-08
342.0, 2.4158e-08
342.2, 2.4002e-08
342.4, 2.3848e-08
342.6, 2.3694e-08
342.8, 2.3541e-08
343.0, 2.3397e-08
343.2, 2.3334e-08
343.4, 2.3271e-08
343.6, 2.3208e-08
343.8, 2.3146e-08
344.0, 2.3084e-08
344.2, 2.3022e-08
344.4, 2.296e-08
344.6, 2.2898e-08
344.8, 2.2836e-08
345.0, 2.2775e-08
345.2, 2.2714e-08
345.4, 2.2653e-08
345.6, 2.2592e-08
345.8, 2.2531e-08
346.0, 2.247e-08
346.2, 2.241e-08
346.4, 2.235e-08
346.6, 2.229e-08
346.8, 2.2281e-08
347.0, 2.2326e-08
347.2, 2.2371e-08
347.4, 2.2416e-08
347.6, 2.2461e-08
347.8, 2.2506e-08
348.0, 2.2551e-08
348.2, 2.2596e-08
348.4, 2.2642e-08
348.6, 2.2687e-08
348.8, 2.2733e-08
349.0, 2.2779e-08
349.2, 2.2825e-08
349.4, 2.287e-08
349.6, 2.2916e-08
349.8, 2.2963e-08
350.0, 2.3009e-08
350.2, 2.3055e-08
350.4, 2.3101e-08
350.6, 2.3125e-08
350.8, 2.3146e-08
351.0, 2.3167e-08
351.2, 2.3189e-08
351.4, 2.321e-08
351.6, 2.3231e-08
351.8, 2.3253e-08
352.0, 2.3274e-08
352.2, 2.3295e-08
352.4, 2.3317e-08
352.6, 2.3338e-08
352.8, 2.336e-08
353.0, 2.3381e-08
353.2, 2.3402e-08
353.4, 2.3424e-08
353.6, 2.3445e-08
353.8, 2.3467e-08
354.0, 2.3488e-08
354.2, 2.4459e-08
354.4, 2.7706e-08
354.6, 3.1383e-08
354.8, 3.5549e-08
355.0, 4.0267e-08
355.2, 4.5612e-08
355.4, 5.1666e-08
355.6, 5.8523e-08
355.8, 6.6291e-08
356.0, 7.509e-08
356.2, 8.5056e-08
356.4, 9.6346e-08
356.6, 1.0913e-07
356.8, 1.2362e-07
357.0, 1.4003e-07
357.2, 1.5861e-07
357.4, 1.7966e-07
357.6, 2.0351e-07
357.8, 2.3052e-07
358.0, 2.3087e-07
358.2, 2.2192e-07
358.4, 2.1332e-07
358.6, 2.0505e-07
358.8, 1.971e-07
359.0, 1.8946e-07
359.2, 1.8212e-07
359.4, 1.7506e-07
359.6, 1.6827e-07
359.8, 1.6175e-07
360.0, 1.5548e-07
360.2, 1.4946e-07
360.4, 1.4366e-07
360.6, 1.3809e-07
360.8, 1.3274e-07
361.0, 1.276e-07
361.2, 1.2265e-07
361.4, 1.179e-07
361.6, 1.1263e-07
361.8, 1.0471e-07
362.0, 9.7352e-08
362.2, 9.0509e-08
362.4, 8.4147e-08
362.6, 7.8232e-08
362.8, 7.2733e-08
363.0, 6.7621e-08
363.2, 6.2867e-08
363.4, 5.8448e-08
363.6, 5.434e-08
363.8, 5.052e-08
364.0, 4.6969e-08
364.2, 4.3668e-08
364.4, 4.0598e-08
364.6, 3.7744e-08
364.8, 3.5091e-08
365.0, 3.2625e-08
365.2, 3.1931e-08
365.4, 3.1252e-08
365.6, 3.0588e-08
365.8, 2.9938e-08
366.0, 2.9302e-08
366.2, 2.8679e-08
366.4, 2.8069e-08
366.6, 2.7473e-08
366.8, 2.6889e-08
367.0, 2.6317e-08
367.2, 2.5758e-08
367.4, 2.521e-08
367.6, 2.6331e-08
367.8, 2.8798e-08
368.0, 3.1496e-08
368.2, 3.4448e-08
368.4, 3.7676e-08
368.6, 4.1206e-08
368.8, 4.5067e-08
369.0, 4.929e-08
369.2, 5.3909e-08
369.4, 5.896e-08
369.6, 6.4485e-08
369.8, 7.0527e-08
370.0, 7.7136e-08
370.2, 8.4364e-08
370.4, 9.2269e-08
370.6, 1.0091e-07
370.8, 1.1037e-07
371.0, 1.2071e-07
371.2, 1.2127e-07
371.4, 1.1979e-07
371.6, 1.1834e-07
371.8, 1.169e-07
372.0, 1.1548e-07
372.2, 1.1408e-07
372.4, 1.1269e-07
372.6, 1.1132e-07
372.8, 1.0997e-07
373.0, 1.0863e-07
373.2, 1.0731e-07
373.4, 1.0601e-07
373.6, 1.0472e-07
373.8, 1.0345e-07
374.0, 1.0219e-07
374.2, 1.0095e-07
374.4, 9.9726e-08
374.6, 9.8514e-08
374.8, 9.7317e-08
375.0, 9.6135e-08
375.2, 9.4967e-08
375.4, 9.3813e-08
375.6, 9.2674e-08
375.8, 9.1548e-08
376.0, 9.0436e-08
376.2, 8.8317e-08
376.4, 8.6037e-08
376.6, 8.3816e-08
376.8, 8.1653e-08
377.0, 7.9545e-08
377.2, 7.7492e-08
377.4, 7.5492e-08
377.6, 7.3543e-08
377.8, 7.1645e-08
378.0, 6.9795e-08
378.2, 6.7994e-08
378.4, 6.6239e-08
378.6, 6.4529e-08
378.8, 6.2863e-08
379.0, 6.1241e-08
379.2, 5.966e-08
379.4, 5.812e-08
379.6, 5.662e-08
379.8, 5.5158e-08
380.0, 5.3735e-08
380.2, 5.2348e-08
380.4, 5.0997e-08
380.6, 4.968e-08
380.8, 4.8398e-08
381.0, 4.7149e-08
381.2, 4.5932e-08
381.4, 4.4746e-08
381.6, 4.3591e-08
381.8, 4.2466e-08
382.0, 4.137e-08
382.2, 4.0302e-08
382.4, 3.9847e-08
382.6, 3.9667e-08
382.8, 3.9488e-08
383.0, 3.931e-08
383.2, 3.9132e-08
383.4, 3.8955e-08
383.6, 3.8779e-08
383.8, 3.8604e-08
384.0, 3.8429e-08
384.2, 3.8256e-08
384.4, 3.8083e-08
384.6, 3.791e-08
384.8, 3.7739e-08
385.0, 3.7569e-08
385.2, 3.7399e-08
385.4, 3.723e-08
385.6, 3.7061e-08
385.8, 3.6894e-08
386.0, 3.7319e-08
386.2, 3.7781e-08
386.4, 3.8248e-08
386.6, 3.8721e-08
386.8, 3.92e-08
387.0, 3.9685e-08
387.2, 4.0176e-08
387.4, 4.0673e-08
387.6, 4.1176e-08
387.8, 4.1685e-08
388.0, 4.2201e-08
388.2, 4.2722e-08
388.4, 4.3251e-08
388.6, 4.3786e-08
388.8, 4.4328e-08
389.0, 4.4876e-08
389.2, 4.5431e-08
389.4, 4.5993e-08
389.6, 4.6562e-08
389.8, 4.7138e-08
390.0, 4.7721e-08
390.2, 4.8311e-08
390.4, 4.8908e-08
390.6, 4.9449e-08
390.8, 4.9338e-08
391.0, 4.9228e-08
391.2, 4.9119e-08
391.4, 4.9009e-08
391.6, 4.89e-08
391.8, 4.879e-08
392.0, 4.8682e-08
392.2, 4.8573e-08
392.4, 4.8465e-08
392.6, 4.8357e-08
392.8, 4.8249e-08
393.0, 4.8141e-08
393.2, 4.8034e-08
393.4, 4.7926e-08
393.6, 4.7633e-08
393.8, 4.7333e-08
394.0, 4.7035e-08
394.2, 4.6739e-08
394.4, 4.6445e-08
394.6, 4.6152e-08
394.8, 4.5862e-08
395.0, 4.5573e-08
395.2, 4.5286e-08
395.4, 4.5001e-08
395.6, 4.4717e-08
395.8, 4.4436e-08
396.0, 4.4156e-08
396.2, 4.3878e-08
396.4, 4.3601e-08
396.6, 4.3327e-08
396.8, 4.3054e-08
397.0, 4.3166e-08
397.2, 4.4626e-08
397.4, 4.6136e-08
397.6, 4.7697e-08
397.8, 4.9311e-08
398.0, 5.0979e-08
398.2, 5.2704e-08
398.4, 5.4488e-08
398.6, 5.6331e-08
398.8, 5.8237e-08
399.0, 6.0208e-08
399.2, 6.2245e-08
399.4, 6.4351e-08
399.6, 6.6528e-08
399.8, 6.8779e-08
400.0, 7.1106e-08
400.2, 7.3512e-08
400.4, 7.5999e-08
400.6, 7.8571e-08
400.8, 8.1229e-08
401.0, 8.3977e-08
401.2, 8.6819e-08
401.4, 8.9756e-08
401.6, 9.2793e-08
401.8, 9.5933e-08
402.0, 9.8923e-08
402.2, 1.011e-07
402.4, 1.0333e-07
402.6, 1.0561e-07
402.8, 1.0793e-07
403.0, 1.1031e-07
403.2, 1.1274e-07
403.4, 1.1523e-07
403.6, 1.1777e-07
403.8, 1.2036e-07
404.0, 1.2301e-07
404.2, 1.2573e-07
404.4, 1.285e-07
404.6, 1.3133e-07
404.8, 1.3422e-07
405.0, 1.3718e-07
405.2, 1.402e-07
405.4, 1.4329e-07
405.6, 1.4645e-07
405.8, 1.4967e-07
406.0, 1.5297e-07
406.2, 1.5634e-07
406.4, 1.5979e-07
406.6, 1.6331e-07
406.8, 1.6691e-07
407.0, 1.6895e-07
407.2, 1.656e-07
407.4, 1.6231e-07
407.6, 1.5908e-07
407.8, 1.5593e-07
408.0, 1.5283e-07
408.2, 1.4979e-07
408.4, 1.4682e-07
408.6, 1.439e-07
408.8, 1.4104e-07
409.0, 1.3824e-07
409.2, 1.355e-07
409.4, 1.3281e-07
409.6, 1.3017e-07
409.8, 1.2758e-07
410.0, 1.2505e-07
410.2, 1.2257e-07
410.4, 1.2013e-07
410.6, 1.1775e-07
410.8, 1.1541e-07
411.0, 1.1312e-07
411.2, 1.1087e-07
411.4, 1.0867e-07
411.6, 1.0651e-07
411.8, 1.0439e-07
412.0, 1.0276e-07
412.2, 1.0265e-07
412.4, 1.0254e-07
412.6, 1.0244e-07
412.8, 1.0233e-07
413.0, 1.0222e-07
413.2, 1.0211e-07
413.4, 1.0201e-07
413.6, 1.019e-07
413.8, 1.0179e-07
414.0, 1.0169e-07
414.2, 1.0158e-07
414.4, 1.0147e-07
414.6, 1.0137e-07
414.8, 1.0126e-07
415.0, 1.0115e-07
415.2, 1.0105e-07
415.4, 1.0094e-07
415.6, 1.0084e-07
415.8, 1.0073e-07
416.0, 1.0062e-07
416.2, 1.0052e-07
416.4, 1.0041e-07
416.6, 1.0031e-07
416.8, 1.002e-07
417.0, 1.001e-07
417.2, 9.9672e-08
417.4, 9.5655e-08
417.6, 9.1801e-08
417.8, 8.8102e-08
418.0, 8.4552e-08
418.2, 8.1145e-08
418.4, 7.7875e-08
418.6, 7.4737e-08
418.8, 7.1726e-08
419.0, 6.8836e-08
419.2, 6.6062e-08
419.4, 6.34e-08
419.6, 6.0845e-08
419.8, 5.8394e-08
420.0, 5.6041e-08
420.2, 5.3783e-08
420.4, 5.1615e-08
420.6, 4.9536e-08
420.8, 4.8984e-08
421.0, 5.0914e-08
421.2, 5.2921e-08
421.4, 5.5007e-08
421.6, 5.7176e-08
421.8, 5.9429e-08
422.0, 6.1772e-08
422.2, 6.4207e-08
422.4, 6.6738e-08
422.6, 6.9369e-08
422.8, 7.2103e-08
423.0, 7.4945e-08
423.2, 7.7899e-08
423.4, 8.097e-08
423.6, 8.4162e-08
423.8, 8.7479e-08
424.0, 9.0928e-08
424.2, 9.4512e-08
424.4, 9.8237e-08
424.6, 1.0083e-07
424.8, 1.0239e-07
425.0, 1.0398e-07
425.2, 1.0559e-07
425.4, 1.0723e-07
425.6, 1.0889e-07
425.8, 1.1057e-07
426.0, 1.1228e-07
426.2, 1.1158e-07
426.4, 1.11e-07
426.6, 1.1057e-07
426.8, 1.1021e-07
427.0, 1.0904e-07
427.2, 9.9073e-08
427.4, 1.2009e-07
427.6, 1.2055e-07
427.8, 2.7051e-07
428.0, 9.0289e-08
428.2, 7.7774e-08
428.4, 7.7775e-08
428.6, 7.7909e-08
428.8, 7.7798e-08
429.0, 7.7645e-08
429.2, 7.7388e-08
429.4, 7.71e-08
429.6, 8.6215e-08
429.8, 3.0748e-07
430.0, 7.6697e-08
430.2, 9.3505e-08
430.4, 1.6652e-07
430.6, 3.9589e-07
430.8, 1.381e-07
431.0, 1.0371e-07
431.2, 2.0797e-07
431.4, 8.3172e-08
431.6, 1.6416e-07
431.8, 2.2608e-07
432.0, 1.6378e-07
432.2, 8.6023e-08
432.4, 3.0761e-07
432.6, 1.0944e-07
432.8, 1.5073e-07
433.0, 1.5036e-07
433.2, 1.5001e-07
433.4, 3.154e-07
433.6, 3.2356e-07
433.8, 8.2636e-08
434.0, 1.3919e-07
434.2, 3.512e-07
434.4, 3.4397e-07
434.6, 2.2029e-07
434.8, 2.0468e-07
435.0, 8.5715e-08
435.2, 7.2812e-08
435.4, 7.249e-08
435.6, 7.7715e-08
435.8, 1.3387e-07
436.0, 8.8763e-08
436.2, 7.148e-08
436.4, 4.617e-07
436.6, 1.6238e-07
436.8, 4.0248e-07
437.0, 5.256e-07
437.2, 3.8109e-07
437.4, 2.8391e-07
437.6, 2.8484e-07
437.8, 4.9891e-07
438.0, 6.3159e-07
438.2, 8.1766e-07
438.4, 1.1009e-06
438.6, 1.4279e-06
438.8, 1.948e-06
439.0, 2.7241e-06
439.2, 3.124e-06
439.4, 4.8436e-06
439.6, 7.3704e-06
439.8, 1.1048e-05
440.0, 1.7311e-05
440.2, 2.5779e-05
440.4, 4.0401e-05
440.6, 6.1216e-05
440.8, 9.4807e-05
441.0, 1.4939e-04
441.2, 2.4128e-04
441.4, 3.9478e-04
441.6, 7.44e-04
441.8, 0.00122
442.0, 0.00206
442.2, 0.00363
442.4, 0.00652
442.6, 0.01224
442.8, 0.02405
443.0, 0.04576
443.2, 0.09334
443.4, 0.19051
443.6, 0.36482
443.8, 0.60183
444.0, 0.802
444.2, 0.91098
444.4, 0.95014
444.6, 0.95725
444.8, 0.96134
445.0, 0.96904
445.2, 0.97578
445.4, 0.98
445.6, 0.98269
445.8, 0.98379
446.0, 0.9845
446.2, 0.98349
446.4, 0.98231
446.6, 0.98073
446.8, 0.98008
447.0, 0.97772
447.2, 0.97619
447.4, 0.9738
447.6, 0.97295
447.8, 0.9715
448.0, 0.97171
448.2, 0.97193
448.4, 0.97427
448.6, 0.97623
448.8, 0.97943
449.0, 0.98305
449.2, 0.98631
449.4, 0.98843
449.6, 0.98916
449.8, 0.98883
450.0, 0.98728
450.2, 0.98486
450.4, 0.98156
450.6, 0.97715
450.8, 0.972
451.0, 0.96802
451.2, 0.96408
451.4, 0.96142
451.6, 0.96013
451.8, 0.9609
452.0, 0.96217
452.2, 0.96485
452.4, 0.96906
452.6, 0.97366
452.8, 0.97636
453.0, 0.98021
453.2, 0.98369
453.4, 0.98436
453.6, 0.98607
453.8, 0.98677
454.0, 0.98497
454.2, 0.98302
454.4, 0.98026
454.6, 0.97815
454.8, 0.97674
455.0, 0.97417
455.2, 0.9742
455.4, 0.97344
455.6, 0.9739
455.8, 0.97547
456.0, 0.97684
456.2, 0.97934
456.4, 0.98106
456.6, 0.98322
456.8, 0.98397
457.0, 0.98572
457.2, 0.98685
457.4, 0.98679
457.6, 0.98729
457.8, 0.98704
458.0, 0.98604
458.2, 0.98561
458.4, 0.9841
458.6, 0.98437
458.8, 0.984
459.0, 0.98393
459.2, 0.98373
459.4, 0.98378
459.6, 0.98379
459.8, 0.98449
460.0, 0.98543
460.2, 0.98613
460.4, 0.98646
460.6, 0.9878
460.8, 0.98748
461.0, 0.9877
461.2, 0.98649
461.4, 0.98541
461.6, 0.98329
461.8, 0.98167
462.0, 0.97915
462.2, 0.97682
462.4, 0.97456
462.6, 0.9734
462.8, 0.97271
463.0, 0.9728
463.2, 0.97352
463.4, 0.97485
463.6, 0.97572
463.8, 0.97846
464.0, 0.98041
464.2, 0.98271
464.4, 0.98316
464.6, 0.98455
464.8, 0.98361
465.0, 0.98332
465.2, 0.98198
465.4, 0.98084
465.6, 0.97846
465.8, 0.97752
466.0, 0.97643
466.2, 0.97673
466.4, 0.9768
466.6, 0.9781
466.8, 0.97893
467.0, 0.98154
467.2, 0.98241
467.4, 0.98452
467.6, 0.98515
467.8, 0.9864
468.0, 0.98645
468.2, 0.98502
468.4, 0.9855
468.6, 0.98519
468.8, 0.98358
469.0, 0.98332
469.2, 0.98404
469.4, 0.98329
469.6, 0.98458
469.8, 0.98595
470.0, 0.987
470.2, 0.98786
470.4, 0.98887
470.6, 0.99056
470.8, 0.99021
471.0, 0.99076
471.2, 0.99158
471.4, 0.99105
471.6, 0.9908
471.8, 0.99016
472.0, 0.9901
472.2, 0.98979
472.4, 0.9893
472.6, 0.98925
472.8, 0.98866
473.0, 0.98712
473.2, 0.98761
473.4, 0.98705
473.6, 0.98667
473.8, 0.98566
474.0, 0.98581
474.2, 0.98454
474.4, 0.98522
474.6, 0.98574
474.8, 0.98597
475.0, 0.98569
475.2, 0.98678
475.4, 0.98721
475.6, 0.98682
475.8, 0.98712
476.0, 0.98736
476.2, 0.98659
476.4, 0.98629
476.6, 0.98603
476.8, 0.98622
477.0, 0.9862
477.2, 0.98725
477.4, 0.98854
477.6, 0.98869
477.8, 0.98986
478.0, 0.99007
478.2, 0.98923
478.4, 0.98809
478.6, 0.98666
478.8, 0.98452
479.0, 0.98275
479.2, 0.98075
479.4, 0.98008
479.6, 0.97881
479.8, 0.97917
480.0, 0.98044
480.2, 0.98268
480.4, 0.98342
480.6, 0.98519
480.8, 0.98659
481.0, 0.98554
481.2, 0.98567
481.4, 0.98469
481.6, 0.98356
481.8, 0.98245
482.0, 0.9821
482.2, 0.98183
482.4, 0.98204
482.6, 0.98192
482.8, 0.9813
483.0, 0.98108
483.2, 0.98094
483.4, 0.98073
483.6, 0.98096
483.8, 0.98086
484.0, 0.98205
484.2, 0.98319
484.4, 0.98385
484.6, 0.98488
484.8, 0.98238
485.0, 0.97851
485.2, 0.97285
485.4, 0.96626
485.6, 0.96137
485.8, 0.95846
486.0, 0.95812
486.2, 0.95963
486.4, 0.96131
486.6, 0.96092
486.8, 0.95696
487.0, 0.94985
487.2, 0.944
487.4, 0.94238
487.6, 0.94731
487.8, 0.95433
488.0, 0.95611
488.2, 0.9305
488.4, 0.83602
488.6, 0.64529
488.8, 0.3958
489.0, 0.18843
489.2, 0.07349
489.4, 0.0256
489.6, 0.01024
489.8, 0.00449
490.0, 0.0022
490.2, 0.00125
490.4, 7.6062e-04
490.6, 2.1117e-04
490.8, 1.1125e-04
491.0, 5.8609e-05
491.2, 3.2703e-05
491.4, 1.9396e-05
491.6, 1.1504e-05
491.8, 6.6663e-06
