#Typical Measured Spectrum of Semrock FF01-635/18 Optical Filter	
#For wavelengths between 320 and 1120 nm, values near or below 3e-7 (Optical Density 6.5) are measurement noise limited.
#For wavelengths < 320 nm and > 1120 nm, values near or below 3e-6 (Optical Density 5.5) are measurement noise limited. 
#Data format:  Wavelength (nm) <tab> Transmission (0 to 1)
#Type: Filter
#Name: Semrock FF01-635_18
wavelength,transmission
265.0, 1.6112e-05
265.2, 1.4363e-05
265.4, 1.2805e-05
265.6, 1.1415e-05
265.8, 1.0176e-05
266.0, 9.0719e-06
266.2, 8.0874e-06
266.4, 7.2097e-06
266.6, 6.4273e-06
266.8, 5.7298e-06
267.0, 5.1079e-06
267.2, 4.5536e-06
267.4, 4.0594e-06
267.6, 3.6189e-06
267.8, 3.2262e-06
268.0, 2.876e-06
268.2, 2.5639e-06
268.4, 2.2857e-06
268.6, 2.0376e-06
268.8, 1.8165e-06
269.0, 1.6194e-06
269.2, 1.4436e-06
269.4, 1.287e-06
269.6, 1.2695e-06
269.8, 1.2568e-06
270.0, 1.2443e-06
270.2, 1.2319e-06
270.4, 1.2196e-06
270.6, 1.2075e-06
270.8, 1.1955e-06
271.0, 1.1836e-06
271.2, 1.1718e-06
271.4, 1.1601e-06
271.6, 1.1485e-06
271.8, 1.1371e-06
272.0, 1.1258e-06
272.2, 1.1146e-06
272.4, 1.1035e-06
272.6, 1.0925e-06
272.8, 1.0816e-06
273.0, 1.0708e-06
273.2, 1.0601e-06
273.4, 1.0496e-06
273.6, 1.0391e-06
273.8, 1.0288e-06
274.0, 1.0185e-06
274.2, 1.0098e-06
274.4, 1.0022e-06
274.6, 9.9469e-07
274.8, 9.8719e-07
275.0, 9.7976e-07
275.2, 9.7051e-07
275.4, 9.6134e-07
275.6, 9.5226e-07
275.8, 9.4327e-07
276.0, 9.3437e-07
276.2, 9.2554e-07
276.4, 9.168e-07
276.6, 9.0815e-07
276.8, 8.9957e-07
277.0, 8.9108e-07
277.2, 8.8266e-07
277.4, 8.7433e-07
277.6, 8.6607e-07
277.8, 8.579e-07
278.0, 9.1726e-07
278.2, 1.0467e-06
278.4, 1.1943e-06
278.6, 1.3628e-06
278.8, 1.5551e-06
279.0, 1.7745e-06
279.2, 2.0248e-06
279.4, 2.3105e-06
279.6, 2.6365e-06
279.8, 3.0084e-06
280.0, 3.4329e-06
280.2, 3.9172e-06
280.4, 4.4698e-06
280.6, 5.1004e-06
280.8, 5.82e-06
281.0, 6.6411e-06
281.2, 7.578e-06
281.4, 8.6471e-06
281.6, 9.8671e-06
281.8, 1.1259e-05
282.0, 1.2848e-05
282.2, 1.466e-05
282.4, 1.6728e-05
282.6, 1.7701e-05
282.8, 1.3121e-05
283.0, 9.7267e-06
283.2, 7.2104e-06
283.4, 5.345e-06
283.6, 3.9622e-06
283.8, 2.9371e-06
284.0, 2.1773e-06
284.2, 1.614e-06
284.4, 1.1964e-06
284.6, 8.8692e-07
284.8, 6.5746e-07
285.0, 4.8737e-07
285.2, 4.7915e-07
285.4, 4.7106e-07
285.6, 4.631e-07
285.8, 4.5529e-07
286.0, 4.476e-07
286.2, 4.4004e-07
286.4, 4.3262e-07
286.6, 4.2531e-07
286.8, 4.1813e-07
287.0, 4.1107e-07
287.2, 4.0414e-07
287.4, 3.9731e-07
287.6, 3.9061e-07
287.8, 3.8401e-07
288.0, 3.7679e-07
288.2, 3.6928e-07
288.4, 3.6192e-07
288.6, 3.5471e-07
288.8, 3.4764e-07
289.0, 3.4072e-07
289.2, 3.3393e-07
289.4, 3.2727e-07
289.6, 3.2075e-07
289.8, 3.1436e-07
290.0, 3.081e-07
290.2, 3.0196e-07
290.4, 2.9594e-07
290.6, 2.9004e-07
290.8, 2.8426e-07
291.0, 2.786e-07
291.2, 2.7305e-07
291.4, 2.6761e-07
291.6, 2.6227e-07
291.8, 2.5705e-07
292.0, 2.5192e-07
292.2, 2.469e-07
292.4, 2.4198e-07
292.6, 2.4264e-07
292.8, 2.5803e-07
293.0, 2.7439e-07
293.2, 2.9179e-07
293.4, 3.1029e-07
293.6, 3.2996e-07
293.8, 3.5088e-07
294.0, 3.7313e-07
294.2, 3.9679e-07
294.4, 4.2194e-07
294.6, 4.487e-07
294.8, 4.7715e-07
295.0, 5.074e-07
295.2, 4.5095e-07
295.4, 4.0077e-07
295.6, 3.5618e-07
295.8, 3.3816e-07
296.0, 3.3431e-07
296.2, 3.305e-07
296.4, 3.2674e-07
296.6, 3.2302e-07
296.8, 3.1934e-07
297.0, 3.157e-07
297.2, 3.121e-07
297.4, 3.0855e-07
297.6, 3.0503e-07
297.8, 3.0156e-07
298.0, 2.9812e-07
298.2, 2.9473e-07
298.4, 2.9137e-07
298.6, 2.8805e-07
298.8, 2.8477e-07
299.0, 2.8153e-07
299.2, 2.7832e-07
299.4, 2.7515e-07
299.6, 2.7201e-07
299.8, 2.6892e-07
300.0, 2.6585e-07
300.2, 2.6282e-07
300.4, 2.6482e-07
300.6, 2.809e-07
300.8, 2.9796e-07
301.0, 3.1605e-07
301.2, 3.3525e-07
301.4, 3.5561e-07
301.6, 3.772e-07
301.8, 4.0011e-07
302.0, 4.2441e-07
302.2, 4.5018e-07
302.4, 4.7752e-07
302.6, 5.0652e-07
302.8, 5.3728e-07
303.0, 5.6991e-07
303.2, 6.0452e-07
303.4, 6.4124e-07
303.6, 6.8018e-07
303.8, 7.2149e-07
304.0, 7.653e-07
304.2, 8.1178e-07
304.4, 8.6108e-07
304.6, 9.1337e-07
304.8, 9.6884e-07
305.0, 1.0277e-06
305.2, 8.5245e-07
305.4, 7.071e-07
305.6, 5.8654e-07
305.8, 4.8653e-07
306.0, 4.0357e-07
306.2, 3.3476e-07
306.4, 2.7768e-07
306.6, 2.3033e-07
306.8, 1.9106e-07
307.0, 1.6692e-07
307.2, 1.7832e-07
307.4, 1.905e-07
307.6, 2.0351e-07
307.8, 2.1741e-07
308.0, 2.3226e-07
308.2, 2.4813e-07
308.4, 2.6507e-07
308.6, 2.8318e-07
308.8, 3.0252e-07
309.0, 3.2319e-07
309.2, 3.4526e-07
309.4, 3.6884e-07
309.6, 3.9403e-07
309.8, 4.2095e-07
310.0, 4.497e-07
310.2, 4.8042e-07
310.4, 5.1323e-07
310.6, 5.4828e-07
310.8, 5.8573e-07
311.0, 6.2574e-07
311.2, 6.6848e-07
311.4, 7.1414e-07
311.6, 7.6292e-07
311.8, 7.5222e-07
312.0, 7.3125e-07
312.2, 7.1086e-07
312.4, 6.9104e-07
312.6, 6.7178e-07
312.8, 6.5305e-07
313.0, 6.3485e-07
313.2, 6.1715e-07
313.4, 5.9994e-07
313.6, 5.8322e-07
313.8, 5.6696e-07
314.0, 5.5115e-07
314.2, 5.3579e-07
314.4, 5.2085e-07
314.6, 5.0633e-07
314.8, 4.9221e-07
315.0, 4.7849e-07
315.2, 4.6515e-07
315.4, 4.5218e-07
315.6, 4.3958e-07
315.8, 4.2732e-07
316.0, 4.1541e-07
316.2, 4.0383e-07
316.4, 3.8807e-07
316.6, 3.6881e-07
316.8, 3.5051e-07
317.0, 3.3311e-07
317.2, 3.1658e-07
317.4, 3.0087e-07
317.6, 2.8594e-07
317.8, 2.7175e-07
318.0, 2.5827e-07
318.2, 2.4545e-07
318.4, 2.3327e-07
318.6, 2.2169e-07
318.8, 2.1069e-07
319.0, 2.0024e-07
319.2, 1.903e-07
319.4, 1.8086e-07
319.6, 1.7188e-07
319.8, 1.6335e-07
320.0, 1.5525e-07
320.2, 1.4754e-07
320.4, 1.4022e-07
320.6, 1.3326e-07
320.8, 1.2665e-07
321.0, 1.2132e-07
321.2, 1.2051e-07
321.4, 1.1971e-07
321.6, 1.1891e-07
321.8, 1.1811e-07
322.0, 1.1732e-07
322.2, 1.1653e-07
322.4, 1.1575e-07
322.6, 1.1498e-07
322.8, 1.1421e-07
323.0, 1.1345e-07
323.2, 1.1269e-07
323.4, 1.1193e-07
323.6, 1.1119e-07
323.8, 1.1044e-07
324.0, 1.097e-07
324.2, 1.0897e-07
324.4, 1.0824e-07
324.6, 1.0751e-07
324.8, 1.068e-07
325.0, 1.0608e-07
325.2, 1.0537e-07
325.4, 1.0467e-07
325.6, 1.0397e-07
325.8, 1.0284e-07
326.0, 1.0166e-07
326.2, 1.0049e-07
326.4, 9.9333e-08
326.6, 9.8192e-08
326.8, 9.7063e-08
327.0, 9.5947e-08
327.2, 9.4845e-08
327.4, 9.3755e-08
327.6, 9.2677e-08
327.8, 9.1612e-08
328.0, 9.0559e-08
328.2, 8.9518e-08
328.4, 8.849e-08
328.6, 8.7473e-08
328.8, 8.6467e-08
329.0, 8.5473e-08
329.2, 8.4491e-08
329.4, 8.352e-08
329.6, 8.256e-08
329.8, 8.1611e-08
330.0, 8.0673e-08
330.2, 7.9746e-08
330.4, 8.1909e-08
330.6, 8.6702e-08
330.8, 9.1775e-08
331.0, 9.7145e-08
331.2, 1.0283e-07
331.4, 1.0885e-07
331.6, 1.1522e-07
331.8, 1.2196e-07
332.0, 1.2909e-07
332.2, 1.3665e-07
332.4, 1.4464e-07
332.6, 1.5311e-07
332.8, 1.6207e-07
333.0, 1.7155e-07
333.2, 1.8159e-07
333.4, 1.9221e-07
333.6, 2.0346e-07
333.8, 2.1537e-07
334.0, 2.2797e-07
334.2, 2.4131e-07
334.4, 2.5543e-07
334.6, 2.7038e-07
334.8, 2.862e-07
335.0, 3.0043e-07
335.2, 2.9901e-07
335.4, 2.976e-07
335.6, 2.9619e-07
335.8, 2.9478e-07
336.0, 2.9339e-07
336.2, 2.92e-07
336.4, 2.9062e-07
336.6, 2.8924e-07
336.8, 2.8787e-07
337.0, 2.8116e-07
337.2, 2.6028e-07
337.4, 2.4095e-07
337.6, 2.2306e-07
337.8, 2.065e-07
338.0, 1.9116e-07
338.2, 1.7697e-07
338.4, 1.6382e-07
338.6, 1.5166e-07
338.8, 1.404e-07
339.0, 1.2997e-07
339.2, 1.2032e-07
339.4, 1.1138e-07
339.6, 1.0311e-07
339.8, 9.5455e-08
340.0, 8.8366e-08
340.2, 8.1804e-08
340.4, 7.5729e-08
340.6, 7.0105e-08
340.8, 6.4899e-08
341.0, 6.008e-08
341.2, 5.5618e-08
341.4, 5.1488e-08
341.6, 4.7664e-08
341.8, 5.3528e-08
342.0, 6.0727e-08
342.2, 6.8894e-08
342.4, 7.816e-08
342.6, 8.8672e-08
342.8, 1.006e-07
343.0, 1.1413e-07
343.2, 1.2948e-07
343.4, 1.4689e-07
343.6, 1.6665e-07
343.8, 1.8906e-07
344.0, 2.1449e-07
344.2, 2.4333e-07
344.4, 2.7606e-07
344.6, 3.1319e-07
344.8, 3.5531e-07
345.0, 4.0309e-07
345.2, 4.5731e-07
345.4, 5.1881e-07
345.6, 5.8859e-07
345.8, 6.6775e-07
346.0, 7.5756e-07
346.2, 8.5944e-07
346.4, 8.2554e-07
346.6, 7.2501e-07
346.8, 6.3672e-07
347.0, 5.5918e-07
347.2, 4.9108e-07
347.4, 4.3128e-07
347.6, 3.7875e-07
347.8, 3.3263e-07
348.0, 2.9212e-07
348.2, 2.5655e-07
348.4, 2.253e-07
348.6, 1.9787e-07
348.8, 1.7377e-07
349.0, 1.5261e-07
349.2, 1.3402e-07
349.4, 1.177e-07
349.6, 1.0337e-07
349.8, 9.078e-08
350.0, 7.9725e-08
350.2, 7.0016e-08
350.4, 6.149e-08
350.6, 5.4001e-08
350.8, 4.7425e-08
351.0, 4.5397e-08
351.2, 5.0484e-08
351.4, 5.614e-08
351.6, 6.243e-08
351.8, 6.9425e-08
352.0, 7.7203e-08
352.2, 8.5853e-08
352.4, 9.5472e-08
352.6, 1.0617e-07
352.8, 1.1806e-07
353.0, 1.3129e-07
353.2, 1.46e-07
353.4, 1.6236e-07
353.6, 1.8055e-07
353.8, 2.0078e-07
354.0, 2.2328e-07
354.2, 2.4829e-07
354.4, 2.7611e-07
354.6, 3.0705e-07
354.8, 3.4145e-07
355.0, 3.7971e-07
355.2, 4.2225e-07
355.4, 4.6956e-07
355.6, 5.1824e-07
355.8, 5.2988e-07
356.0, 5.4178e-07
356.2, 5.5395e-07
356.4, 5.664e-07
356.6, 5.7912e-07
356.8, 5.9213e-07
357.0, 6.0543e-07
357.2, 6.1904e-07
357.4, 6.3294e-07
357.6, 6.4716e-07
357.8, 6.617e-07
358.0, 6.7656e-07
358.2, 6.9176e-07
358.4, 7.073e-07
358.6, 7.2319e-07
358.8, 7.3944e-07
359.0, 7.5605e-07
359.2, 7.7304e-07
359.4, 7.904e-07
359.6, 8.0816e-07
359.8, 8.2632e-07
360.0, 8.4488e-07
360.2, 8.6386e-07
360.4, 8.5816e-07
360.6, 8.4729e-07
360.8, 8.3657e-07
361.0, 8.2598e-07
361.2, 8.1552e-07
361.4, 8.052e-07
361.6, 7.9501e-07
361.8, 7.8495e-07
362.0, 7.7501e-07
362.2, 7.652e-07
362.4, 7.5551e-07
362.6, 7.4595e-07
362.8, 7.3651e-07
363.0, 7.2718e-07
363.2, 7.1798e-07
363.4, 7.0889e-07
363.6, 6.9992e-07
363.8, 6.9106e-07
364.0, 6.8231e-07
364.2, 6.7367e-07
364.4, 6.6515e-07
364.6, 6.5673e-07
364.8, 6.4841e-07
365.0, 6.0131e-07
365.2, 4.7829e-07
365.4, 3.8044e-07
365.6, 3.0261e-07
365.8, 2.407e-07
366.0, 1.9145e-07
366.2, 1.5228e-07
366.4, 1.2113e-07
366.6, 9.6348e-08
366.8, 7.6637e-08
367.0, 6.7277e-08
367.2, 6.7132e-08
367.4, 6.6988e-08
367.6, 6.6845e-08
367.8, 6.6701e-08
368.0, 6.6558e-08
368.2, 6.6415e-08
368.4, 6.6273e-08
368.6, 6.613e-08
368.8, 6.5989e-08
369.0, 6.5847e-08
369.2, 6.5706e-08
369.4, 6.5565e-08
369.6, 6.5424e-08
369.8, 6.5284e-08
370.0, 6.5144e-08
370.2, 6.5004e-08
370.4, 6.4864e-08
370.6, 6.4725e-08
370.8, 7.2282e-08
371.0, 8.3026e-08
371.2, 9.5366e-08
371.4, 1.0954e-07
371.6, 1.2582e-07
371.8, 1.4452e-07
372.0, 1.66e-07
372.2, 1.9068e-07
372.4, 2.1902e-07
372.6, 2.5157e-07
372.8, 2.8897e-07
373.0, 3.3192e-07
373.2, 3.8125e-07
373.4, 4.3792e-07
373.6, 5.03e-07
373.8, 5.7777e-07
374.0, 6.6364e-07
374.2, 7.6228e-07
374.4, 8.4188e-07
374.6, 7.7271e-07
374.8, 7.0922e-07
375.0, 6.5095e-07
375.2, 5.9747e-07
375.4, 5.4838e-07
375.6, 5.0332e-07
375.8, 4.6197e-07
376.0, 4.2401e-07
376.2, 3.8917e-07
376.4, 3.572e-07
376.6, 3.2785e-07
376.8, 3.0091e-07
377.0, 2.7619e-07
377.2, 2.535e-07
377.4, 2.3267e-07
377.6, 2.1355e-07
377.8, 1.9601e-07
378.0, 1.799e-07
378.2, 1.7423e-07
378.4, 1.7617e-07
378.6, 1.7812e-07
378.8, 1.801e-07
379.0, 1.821e-07
379.2, 1.8413e-07
379.4, 1.8617e-07
379.6, 1.8824e-07
379.8, 1.9033e-07
380.0, 1.9245e-07
380.2, 1.9458e-07
380.4, 1.9675e-07
380.6, 1.9893e-07
380.8, 2.0114e-07
381.0, 2.0338e-07
381.2, 2.0564e-07
381.4, 2.0792e-07
381.6, 2.1023e-07
381.8, 2.1256e-07
382.0, 1.9731e-07
382.2, 1.8225e-07
382.4, 1.6834e-07
382.6, 1.5548e-07
382.8, 1.4361e-07
383.0, 1.3265e-07
383.2, 1.2252e-07
383.4, 1.1317e-07
383.6, 1.0452e-07
383.8, 9.6544e-08
384.0, 8.9173e-08
384.2, 8.2365e-08
384.4, 7.6076e-08
384.6, 7.0268e-08
384.8, 6.4903e-08
385.0, 5.9948e-08
385.2, 5.5371e-08
385.4, 5.1143e-08
385.6, 4.8441e-08
385.8, 4.8177e-08
386.0, 4.7915e-08
386.2, 4.7653e-08
386.4, 4.7394e-08
386.6, 4.7135e-08
386.8, 4.6878e-08
387.0, 4.6623e-08
387.2, 4.6369e-08
387.4, 4.6116e-08
387.6, 4.5865e-08
387.8, 4.5615e-08
388.0, 4.5366e-08
388.2, 4.5119e-08
388.4, 4.4873e-08
388.6, 4.4628e-08
388.8, 4.4385e-08
389.0, 4.4143e-08
389.2, 4.3902e-08
389.4, 4.5495e-08
389.6, 4.7812e-08
389.8, 5.0248e-08
390.0, 5.2807e-08
390.2, 5.5497e-08
390.4, 5.8324e-08
390.6, 6.1295e-08
390.8, 6.4417e-08
391.0, 6.7699e-08
391.2, 7.1147e-08
391.4, 7.4772e-08
391.6, 7.858e-08
391.8, 8.2583e-08
392.0, 8.679e-08
392.2, 6.2965e-08
392.4, 4.568e-08
392.6, 3.314e-08
392.8, 2.4043e-08
393.0, 2.2881e-08
393.2, 2.4014e-08
393.4, 2.5203e-08
393.6, 2.6451e-08
393.8, 2.776e-08
394.0, 2.9135e-08
394.2, 3.0578e-08
394.4, 3.2092e-08
394.6, 3.368e-08
394.8, 3.5348e-08
395.0, 3.7098e-08
395.2, 3.8935e-08
395.4, 4.0863e-08
395.6, 4.2886e-08
395.8, 4.501e-08
396.0, 4.7238e-08
396.2, 4.9577e-08
396.4, 5.2032e-08
396.6, 5.4004e-08
396.8, 5.2348e-08
397.0, 5.0744e-08
397.2, 4.9188e-08
397.4, 4.7681e-08
397.6, 4.6219e-08
397.8, 4.4802e-08
398.0, 4.3429e-08
398.2, 4.2098e-08
398.4, 4.0807e-08
398.6, 3.9556e-08
398.8, 3.8344e-08
399.0, 3.7169e-08
399.2, 3.6029e-08
399.4, 3.4925e-08
399.6, 3.3854e-08
399.8, 3.2817e-08
400.0, 3.1811e-08
400.2, 3.0836e-08
400.4, 3.2219e-08
400.6, 3.5708e-08
400.8, 3.9576e-08
401.0, 4.3862e-08
401.2, 4.8612e-08
401.4, 5.3877e-08
401.6, 5.9713e-08
401.8, 6.618e-08
402.0, 7.3347e-08
402.2, 8.1291e-08
402.4, 9.0095e-08
402.6, 9.9853e-08
402.8, 1.1067e-07
403.0, 1.2265e-07
403.2, 1.3594e-07
403.4, 1.5066e-07
403.6, 1.6698e-07
403.8, 1.8506e-07
404.0, 2.051e-07
404.2, 1.7564e-07
404.4, 1.5002e-07
404.6, 1.2814e-07
404.8, 1.0945e-07
405.0, 9.3481e-08
405.2, 7.9845e-08
405.4, 6.8198e-08
405.6, 5.825e-08
405.8, 4.9753e-08
406.0, 4.2495e-08
406.2, 3.6297e-08
406.4, 3.1002e-08
406.6, 2.648e-08
406.8, 2.2617e-08
407.0, 1.9318e-08
407.2, 1.65e-08
407.4, 1.4093e-08
407.6, 1.2037e-08
407.8, 1.1251e-08
408.0, 1.185e-08
408.2, 1.2481e-08
408.4, 1.3145e-08
408.6, 1.3845e-08
408.8, 1.4582e-08
409.0, 1.5359e-08
409.2, 1.6176e-08
409.4, 1.7038e-08
409.6, 1.7945e-08
409.8, 1.89e-08
410.0, 1.9906e-08
410.2, 2.0966e-08
410.4, 2.2082e-08
410.6, 2.3258e-08
410.8, 2.4496e-08
411.0, 2.58e-08
411.2, 2.7174e-08
411.4, 2.8621e-08
411.6, 2.9045e-08
411.8, 2.9326e-08
412.0, 2.9611e-08
412.2, 2.9897e-08
412.4, 3.0187e-08
412.6, 3.048e-08
412.8, 3.0775e-08
413.0, 3.1073e-08
413.2, 3.1374e-08
413.4, 3.1678e-08
413.6, 3.1985e-08
413.8, 3.2295e-08
414.0, 3.2608e-08
414.2, 3.2924e-08
414.4, 3.3243e-08
414.6, 3.3565e-08
414.8, 3.3891e-08
415.0, 3.4219e-08
415.2, 3.5121e-08
415.4, 3.7211e-08
415.6, 3.9425e-08
415.8, 4.1771e-08
416.0, 4.4256e-08
416.2, 4.6889e-08
416.4, 4.9679e-08
416.6, 5.2635e-08
416.8, 5.5767e-08
417.0, 5.9086e-08
417.2, 6.2601e-08
417.4, 6.6326e-08
417.6, 7.0273e-08
417.8, 7.4454e-08
418.0, 7.8884e-08
418.2, 8.3578e-08
418.4, 8.8551e-08
418.6, 9.382e-08
418.8, 9.9402e-08
419.0, 9.6896e-08
419.2, 9.2624e-08
419.4, 8.854e-08
419.6, 8.4637e-08
419.8, 8.0905e-08
420.0, 7.7338e-08
420.2, 7.3928e-08
420.4, 7.0669e-08
420.6, 6.7553e-08
420.8, 6.4575e-08
421.0, 6.1728e-08
421.2, 5.9007e-08
421.4, 5.6405e-08
421.6, 5.3918e-08
421.8, 5.1541e-08
422.0, 4.9269e-08
422.2, 4.7097e-08
422.4, 4.502e-08
422.6, 4.3585e-08
422.8, 4.3527e-08
423.0, 4.3469e-08
423.2, 4.3411e-08
423.4, 4.3353e-08
423.6, 4.3296e-08
423.8, 4.3238e-08
424.0, 4.318e-08
424.2, 4.3123e-08
424.4, 4.3066e-08
424.6, 4.3008e-08
424.8, 4.2951e-08
425.0, 4.2894e-08
425.2, 4.2837e-08
425.4, 4.278e-08
425.6, 4.2723e-08
425.8, 4.2666e-08
426.0, 4.2609e-08
426.2, 4.2553e-08
426.4, 4.3753e-08
426.6, 4.5358e-08
426.8, 4.7022e-08
427.0, 4.8748e-08
427.2, 5.1047e-08
427.4, 5.3454e-08
427.6, 5.5975e-08
427.8, 5.8615e-08
428.0, 6.1379e-08
428.2, 6.4274e-08
428.4, 6.7305e-08
428.6, 7.0479e-08
428.8, 7.3803e-08
429.0, 7.7284e-08
429.2, 8.0929e-08
429.4, 8.4745e-08
429.6, 8.8742e-08
429.8, 9.2927e-08
430.0, 9.731e-08
430.2, 1.005e-07
430.4, 1.005e-07
430.6, 1.005e-07
430.8, 1.005e-07
431.0, 1.005e-07
431.2, 1.005e-07
431.4, 1.005e-07
431.6, 1.005e-07
431.8, 1.005e-07
432.0, 1.005e-07
432.2, 1.005e-07
432.4, 1.005e-07
432.6, 1.005e-07
432.8, 1.005e-07
433.0, 1.005e-07
433.2, 1.005e-07
433.4, 1.005e-07
433.6, 1.005e-07
433.8, 1.005e-07
434.0, 1.005e-07
434.2, 1.005e-07
434.4, 1.005e-07
434.6, 1.005e-07
434.8, 1.005e-07
435.0, 1.005e-07
435.2, 1.005e-07
435.4, 1.005e-07
435.6, 1.005e-07
435.8, 1.005e-07
436.0, 1.005e-07
436.2, 1.005e-07
436.4, 1.005e-07
436.6, 1.005e-07
436.8, 1.005e-07
437.0, 1.005e-07
437.2, 1.005e-07
437.4, 1.005e-07
437.6, 1.005e-07
437.8, 1.005e-07
438.0, 1.005e-07
438.2, 1.005e-07
438.4, 1.005e-07
438.6, 1.005e-07
438.8, 1.005e-07
439.0, 1.005e-07
439.2, 1.005e-07
439.4, 1.005e-07
439.6, 1.005e-07
439.8, 1.005e-07
440.0, 1.005e-07
440.2, 1.005e-07
440.4, 1.005e-07
440.6, 1.005e-07
440.8, 1.005e-07
441.0, 1.005e-07
441.2, 1.005e-07
441.4, 1.005e-07
441.6, 1.005e-07
441.8, 1.005e-07
442.0, 1.005e-07
442.2, 1.005e-07
442.4, 1.005e-07
442.6, 1.005e-07
442.8, 1.005e-07
443.0, 1.005e-07
443.2, 1.005e-07
443.4, 1.005e-07
443.6, 1.005e-07
443.8, 1.005e-07
444.0, 1.005e-07
444.2, 1.005e-07
444.4, 1.005e-07
444.6, 1.005e-07
444.8, 1.005e-07
445.0, 1.005e-07
445.2, 1.005e-07
445.4, 1.005e-07
445.6, 1.005e-07
445.8, 1.005e-07
446.0, 1.005e-07
446.2, 1.005e-07
446.4, 1.005e-07
446.6, 1.005e-07
446.8, 1.005e-07
447.0, 1.005e-07
447.2, 1.005e-07
447.4, 1.005e-07
447.6, 1.005e-07
447.8, 1.005e-07
448.0, 1.005e-07
448.2, 1.005e-07
448.4, 1.005e-07
448.6, 1.005e-07
448.8, 1.005e-07
449.0, 1.005e-07
449.2, 1.005e-07
449.4, 1.005e-07
449.6, 1.005e-07
449.8, 1.005e-07
450.0, 1.005e-07
450.2, 1.005e-07
450.4, 1.005e-07
450.6, 1.005e-07
450.8, 1.005e-07
451.0, 1.005e-07
451.2, 1.005e-07
451.4, 1.005e-07
451.6, 1.005e-07
451.8, 1.005e-07
452.0, 1.005e-07
452.2, 1.005e-07
452.4, 1.005e-07
452.6, 1.0048e-07
452.8, 1.0046e-07
453.0, 1.0044e-07
453.2, 1.0042e-07
453.4, 1.0039e-07
453.6, 1.0037e-07
453.8, 1.0035e-07
454.0, 1.0033e-07
454.2, 1.0031e-07
454.4, 1.0029e-07
454.6, 1.0027e-07
454.8, 1.0025e-07
455.0, 1.0023e-07
455.2, 1.0021e-07
455.4, 1.0019e-07
455.6, 1.0017e-07
455.8, 1.0015e-07
456.0, 1.0013e-07
456.2, 1.0013e-07
456.4, 1.0015e-07
456.6, 1.0017e-07
456.8, 1.0019e-07
457.0, 1.0021e-07
457.2, 1.0023e-07
457.4, 1.0026e-07
457.6, 1.0028e-07
457.8, 1.003e-07
458.0, 1.0032e-07
458.2, 1.0034e-07
458.4, 1.0036e-07
458.6, 1.0038e-07
458.8, 1.004e-07
459.0, 1.0042e-07
459.2, 1.0044e-07
459.4, 1.0046e-07
459.6, 1.0048e-07
459.8, 1.005e-07
460.0, 1.005e-07
460.2, 1.005e-07
460.4, 1.005e-07
460.6, 1.005e-07
460.8, 1.005e-07
461.0, 1.005e-07
461.2, 1.005e-07
461.4, 1.005e-07
461.6, 1.005e-07
461.8, 1.005e-07
462.0, 1.005e-07
462.2, 1.005e-07
462.4, 1.005e-07
462.6, 1.005e-07
462.8, 1.005e-07
463.0, 1.005e-07
463.2, 1.005e-07
463.4, 1.005e-07
463.6, 1.005e-07
463.8, 1.005e-07
464.0, 1.005e-07
464.2, 1.005e-07
464.4, 1.005e-07
464.6, 1.005e-07
464.8, 1.005e-07
465.0, 1.005e-07
465.2, 1.005e-07
465.4, 1.005e-07
465.6, 1.005e-07
465.8, 1.005e-07
466.0, 1.005e-07
466.2, 1.005e-07
466.4, 1.005e-07
466.6, 1.005e-07
466.8, 1.005e-07
467.0, 1.005e-07
467.2, 9.5337e-08
467.4, 7.1123e-08
467.6, 5.3058e-08
467.8, 3.9582e-08
468.0, 2.9529e-08
468.2, 3.205e-08
468.4, 3.4786e-08
468.6, 3.7755e-08
468.8, 4.0978e-08
469.0, 4.4477e-08
469.2, 4.8273e-08
469.4, 5.2394e-08
469.6, 5.6867e-08
469.8, 6.1722e-08
470.0, 6.6991e-08
470.2, 7.2709e-08
470.4, 7.8916e-08
470.6, 8.2198e-08
470.8, 7.6148e-08
471.0, 7.0544e-08
471.2, 6.5352e-08
471.4, 6.0542e-08
471.6, 5.6086e-08
471.8, 5.1958e-08
472.0, 4.8134e-08
472.2, 4.4591e-08
472.4, 4.131e-08
472.6, 3.8269e-08
472.8, 3.5453e-08
473.0, 3.2843e-08
473.2, 3.0426e-08
473.4, 2.8187e-08
473.6, 2.6112e-08
473.8, 2.419e-08
474.0, 2.241e-08
474.2, 2.0761e-08
474.4, 2.1356e-08
474.6, 2.2706e-08
474.8, 2.4142e-08
475.0, 2.5669e-08
475.2, 2.7292e-08
475.4, 2.9018e-08
475.6, 3.0854e-08
475.8, 3.2805e-08
476.0, 3.488e-08
476.2, 3.7086e-08
476.4, 3.9431e-08
476.6, 4.1925e-08
476.8, 4.4576e-08
477.0, 4.7395e-08
477.2, 5.0393e-08
477.4, 5.358e-08
477.6, 5.6968e-08
477.8, 6.0571e-08
478.0, 6.3784e-08
478.2, 6.5396e-08
478.4, 6.7049e-08
478.6, 6.8744e-08
478.8, 7.0481e-08
479.0, 7.2263e-08
479.2, 7.4089e-08
479.4, 7.5962e-08
479.6, 7.7881e-08
479.8, 7.985e-08
480.0, 8.1868e-08
480.2, 8.3937e-08
480.4, 8.6059e-08
480.6, 8.8234e-08
480.8, 9.0464e-08
481.0, 9.275e-08
481.2, 9.5094e-08
481.4, 9.7498e-08
481.6, 9.9962e-08
481.8, 9.4156e-08
482.0, 8.6652e-08
482.2, 7.9746e-08
482.4, 7.339e-08
482.6, 6.754e-08
482.8, 6.2157e-08
483.0, 5.7203e-08
483.2, 5.2644e-08
483.4, 4.8448e-08
483.6, 4.4587e-08
483.8, 4.1033e-08
484.0, 3.7762e-08
484.2, 3.4753e-08
484.4, 3.1983e-08
484.6, 2.9434e-08
484.8, 2.7088e-08
485.0, 2.4929e-08
