#Typical Measured Spectrum of Semrock FF484-FDi01 Optical Filter	
#For wavelengths between 320 and 1120 nm, values near or below 3e-7 (Optical Density 6.5) are measurement noise limited.
#For wavelengths < 320 nm and > 1120 nm, values near or below 3e-6 (Optical Density 5.5) are measurement noise limited. 
#Data format:  Wavelength (nm) <tab> Transmission (0 to 1)
#Type: dichroic,
#Name: Semrock FF484-FDi01
wavelength,transmission
345.0,0.15768
345.2,0.1557
345.4,0.14941
345.6,0.13825
345.8,0.12362
346.0,0.10643
346.2,0.08892
346.4,0.07279
346.6,0.0593
346.8,0.04783
347.0,0.03939
347.2,0.03302
347.4,0.02806
347.6,0.02452
347.8,0.02197
348.0,0.02003
348.2,0.01856
348.4,0.01729
348.6,0.01673
348.8,0.01613
349.0,0.01596
349.2,0.0157
349.4,0.0158
349.6,0.01621
349.8,0.01679
350.0,0.01768
350.2,0.01907
350.4,0.0211
350.6,0.02336
350.8,0.0261
351.0,0.02916
351.2,0.03167
351.4,0.03418
351.6,0.03542
351.8,0.03576
352.0,0.03484
352.2,0.0328
352.4,0.02985
352.6,0.02647
352.8,0.02277
353.0,0.01983
353.2,0.01654
353.4,0.0143
353.6,0.01245
353.8,0.01085
354.0,0.00972
354.2,0.00878
354.4,0.00788
354.6,0.0073
354.8,0.00673
355.0,0.00657
355.2,0.00642
355.4,0.00608
355.6,0.00616
355.8,0.00608
356.0,0.00629
356.2,0.00659
356.4,0.00709
356.6,0.0074
356.8,0.00844
357.0,0.00964
357.2,0.01127
357.4,0.01328
357.6,0.01616
357.8,0.01926
358.0,0.0232
358.2,0.02721
358.4,0.03135
358.6,0.03469
358.8,0.03689
359.0,0.03755
359.2,0.03727
359.4,0.03515
359.6,0.03212
359.8,0.02832
360.0,0.02465
360.2,0.02114
360.4,0.01805
360.6,0.01544
360.8,0.01333
361.0,0.01191
361.2,0.01069
361.4,0.00972
361.6,0.00912
361.8,0.00862
362.0,0.00796
362.2,0.00781
362.4,0.00749
362.6,0.00732
362.8,0.00712
363.0,0.00694
363.2,0.00685
363.4,0.00656
363.6,0.00658
363.8,0.0063
364.0,0.00608
364.2,0.00585
364.4,0.00573
364.6,0.00557
364.8,0.00519
365.0,0.0051
365.2,0.00518
365.4,0.00503
365.6,0.00487
365.8,0.00461
366.0,0.0044
366.2,0.00413
366.4,0.00422
366.6,0.00408
366.8,0.00416
367.0,0.00408
367.2,0.00387
367.4,0.00387
367.6,0.00399
367.8,0.00391
368.0,0.004
368.2,0.00411
368.4,0.00423
368.6,0.00432
368.8,0.00453
369.0,0.0049
369.2,0.00508
369.4,0.00537
369.6,0.00575
369.8,0.00607
370.0,0.00648
370.2,0.00687
370.4,0.00742
370.6,0.00789
370.8,0.0085
371.0,0.00885
371.2,0.00917
371.4,0.00972
371.6,0.00988
371.8,0.00991
372.0,0.00988
372.2,0.00975
372.4,0.00951
372.6,0.00922
372.8,0.00888
373.0,0.0085
373.2,0.00806
373.4,0.00767
373.6,0.00751
373.8,0.00708
374.0,0.00675
374.2,0.00669
374.4,0.00651
374.6,0.00645
374.8,0.00637
375.0,0.00626
375.2,0.00623
375.4,0.00645
375.6,0.0064
375.8,0.00654
376.0,0.00697
376.2,0.00724
376.4,0.00756
376.6,0.00807
376.8,0.00861
377.0,0.00923
377.2,0.0102
377.4,0.01094
377.6,0.01223
377.8,0.0134
378.0,0.01471
378.2,0.0159
378.4,0.01719
378.6,0.01838
378.8,0.01992
379.0,0.02076
379.2,0.0217
379.4,0.02207
379.6,0.02236
379.8,0.02236
380.0,0.02233
380.2,0.02177
380.4,0.02124
380.6,0.02039
380.8,0.0199
381.0,0.01942
381.2,0.01893
381.4,0.01864
381.6,0.01824
381.8,0.01818
382.0,0.01823
382.2,0.01849
382.4,0.01901
382.6,0.0197
382.8,0.02043
383.0,0.02135
383.2,0.02245
383.4,0.02383
383.6,0.02527
383.8,0.02662
384.0,0.02819
384.2,0.0299
384.4,0.03154
384.6,0.03313
384.8,0.03526
385.0,0.03684
385.2,0.03854
385.4,0.04018
385.6,0.04114
385.8,0.04175
386.0,0.04171
386.2,0.04104
386.4,0.03985
386.6,0.03806
386.8,0.0361
387.0,0.03362
387.2,0.03141
387.4,0.02896
387.6,0.02653
387.8,0.02496
388.0,0.02328
388.2,0.0218
388.4,0.02051
388.6,0.01972
388.8,0.01888
389.0,0.0183
389.2,0.0181
389.4,0.01783
389.6,0.01781
389.8,0.01786
390.0,0.01817
390.2,0.01861
390.4,0.01898
390.6,0.01951
390.8,0.02015
391.0,0.0207
391.2,0.02141
391.4,0.02192
391.6,0.02259
391.8,0.02291
392.0,0.02361
392.2,0.02417
392.4,0.02373
392.6,0.02334
392.8,0.0227
393.0,0.02159
393.2,0.0206
393.4,0.01983
393.6,0.01832
393.8,0.01702
394.0,0.01546
394.2,0.01407
394.4,0.0136
394.6,0.01262
394.8,0.0117
395.0,0.01034
395.2,0.00977
395.4,0.00934
395.6,0.00873
395.8,0.00864
396.0,0.008
396.2,0.0075
396.4,0.00732
396.6,0.00747
396.8,0.00742
397.0,0.00684
397.2,0.00708
397.4,0.00671
397.6,0.00705
397.8,0.00746
398.0,0.00757
398.2,0.00732
398.4,0.00765
398.6,0.00799
398.8,0.00835
399.0,0.00893
399.2,0.00893
399.4,0.00953
399.6,0.00996
399.8,0.01071
400.0,0.0113
400.2,0.01145
400.4,0.01215
400.6,0.01255
400.8,0.01308
401.0,0.01338
401.2,0.01376
401.4,0.01367
401.6,0.01358
401.8,0.01358
402.0,0.01344
402.2,0.01296
402.4,0.01282
402.6,0.012
402.8,0.01146
403.0,0.01102
403.2,0.01075
403.4,0.01013
403.6,0.00947
403.8,0.00913
404.0,0.00891
404.2,0.00856
404.4,0.00836
404.6,0.00807
404.8,0.0077
405.0,0.00747
405.2,0.00761
405.4,0.0075
405.6,0.00754
405.8,0.00742
406.0,0.00748
406.2,0.00767
406.4,0.00785
406.6,0.0082
406.8,0.00835
407.0,0.00875
407.2,0.00881
407.4,0.00949
407.6,0.01014
407.8,0.0109
408.0,0.01144
408.2,0.01231
408.4,0.01341
408.6,0.01456
408.8,0.01593
409.0,0.01755
409.2,0.01933
409.4,0.02107
409.6,0.02335
409.8,0.02642
410.0,0.02884
410.2,0.03195
410.4,0.03527
410.6,0.03862
410.8,0.04187
411.0,0.04541
411.2,0.04898
411.4,0.05193
411.6,0.0546
411.8,0.05738
412.0,0.05946
412.2,0.06086
412.4,0.06219
412.6,0.06279
412.8,0.0633
413.0,0.06333
413.2,0.06287
413.4,0.0623
413.6,0.06146
413.8,0.06088
414.0,0.0599
414.2,0.05926
414.4,0.05817
414.6,0.05692
414.8,0.05569
415.0,0.05459
415.2,0.0532
415.4,0.05172
415.6,0.05002
415.8,0.04846
416.0,0.04702
416.2,0.04533
416.4,0.0436
416.6,0.04237
416.8,0.04033
417.0,0.0388
417.2,0.03733
417.4,0.03603
417.6,0.03483
417.8,0.03324
418.0,0.03219
418.2,0.03112
418.4,0.03039
418.6,0.02982
418.8,0.02927
419.0,0.02893
419.2,0.02865
419.4,0.02869
419.6,0.0289
419.8,0.02924
420.0,0.02969
420.2,0.03027
420.4,0.03077
420.6,0.03164
420.8,0.03233
421.0,0.03286
421.2,0.03361
421.4,0.03398
421.6,0.03467
421.8,0.03481
422.0,0.03494
422.2,0.03452
422.4,0.03421
422.6,0.03342
422.8,0.03263
423.0,0.03142
423.2,0.03035
423.4,0.0288
423.6,0.02754
423.8,0.02628
424.0,0.02477
424.2,0.02361
424.4,0.02193
424.6,0.02048
424.8,0.01897
425.0,0.01758
425.2,0.01625
425.4,0.01464
425.6,0.01314
425.8,0.01173
426.0,0.01052
426.2,0.00965
426.4,0.00866
426.6,0.00778
426.8,0.007
427.0,0.00669
427.2,0.00631
427.4,0.00593
427.6,0.00562
427.8,0.00535
428.0,0.00525
428.2,0.00502
428.4,0.00494
428.6,0.0049
428.8,0.00497
429.0,0.00489
429.2,0.00492
429.4,0.00503
429.6,0.00517
429.8,0.00535
430.0,0.00571
430.2,0.00619
430.4,0.00641
430.6,0.00693
430.8,0.00729
431.0,0.00778
431.2,0.00815
431.4,0.00856
431.6,0.00892
431.8,0.00937
432.0,0.00981
432.2,0.01033
432.4,0.01092
432.6,0.01161
432.8,0.01234
433.0,0.01327
433.2,0.01432
433.4,0.01525
433.6,0.01612
433.8,0.01683
434.0,0.01741
434.2,0.0177
434.4,0.01753
434.6,0.01714
434.8,0.01652
435.0,0.01565
435.2,0.01449
435.4,0.01325
435.6,0.01197
435.8,0.01085
436.0,0.00967
436.2,0.00872
436.4,0.0077
436.6,0.00687
436.8,0.00624
437.0,0.00571
437.2,0.00519
437.4,0.00472
437.6,0.00441
437.8,0.00406
438.0,0.00387
438.2,0.00368
438.4,0.00354
438.6,0.00337
438.8,0.0032
439.0,0.00317
439.2,0.00313
439.4,0.0031
439.6,0.00305
439.8,0.00311
440.0,0.00321
440.2,0.00338
440.4,0.00347
440.6,0.00361
440.8,0.00377
441.0,0.0039
441.2,0.0041
441.4,0.00423
441.6,0.00442
441.8,0.00451
442.0,0.00466
442.2,0.00492
442.4,0.00511
442.6,0.00547
442.8,0.00591
443.0,0.00644
443.2,0.00724
443.4,0.00825
443.6,0.00971
443.8,0.01144
444.0,0.01389
444.2,0.0169
444.4,0.02051
444.6,0.02466
444.8,0.02908
445.0,0.0334
445.2,0.03691
445.4,0.03965
445.6,0.04103
445.8,0.04153
446.0,0.04048
446.2,0.03847
446.4,0.03539
446.6,0.03154
446.8,0.02732
447.0,0.0228
447.2,0.0188
447.4,0.01543
447.6,0.01266
447.8,0.01049
448.0,0.00877
448.2,0.00753
448.4,0.00645
448.6,0.00576
448.8,0.00513
449.0,0.0046
449.2,0.00417
449.4,0.00385
449.6,0.00361
449.8,0.00341
450.0,0.00318
450.2,0.00299
450.4,0.00293
450.6,0.00276
450.8,0.00268
451.0,0.00257
451.2,0.00253
451.4,0.00246
451.6,0.00248
451.8,0.00242
452.0,0.00249
452.2,0.0024
452.4,0.00239
452.6,0.00241
452.8,0.00247
453.0,0.00244
453.2,0.00255
453.4,0.0026
453.6,0.0027
453.8,0.00272
454.0,0.00284
454.2,0.00286
454.4,0.00305
454.6,0.00315
454.8,0.00335
455.0,0.00351
455.2,0.00364
455.4,0.0038
455.6,0.00406
455.8,0.00425
456.0,0.00449
456.2,0.00469
456.4,0.00491
456.6,0.0051
456.8,0.00529
457.0,0.00561
457.2,0.00575
457.4,0.00591
457.6,0.00595
457.8,0.0061
458.0,0.00615
458.2,0.00607
458.4,0.00597
458.6,0.00586
458.8,0.00578
459.0,0.00566
459.2,0.00547
459.4,0.00516
459.6,0.00495
459.8,0.00471
460.0,0.00453
460.2,0.00426
460.4,0.00402
460.6,0.00383
460.8,0.0036
461.0,0.00345
461.2,0.00328
461.4,0.00309
461.6,0.00294
461.8,0.00281
462.0,0.00269
462.2,0.00255
462.4,0.0025
462.6,0.00233
462.8,0.00233
463.0,0.00222
463.2,0.00216
463.4,0.00207
463.6,0.002
463.8,0.002
464.0,0.00198
464.2,0.00198
464.4,0.00192
464.6,0.00184
464.8,0.00183
465.0,0.00184
465.2,0.00181
465.4,0.00186
465.6,0.00189
465.8,0.00183
466.0,0.00182
466.2,0.00183
466.4,0.00181
466.6,0.00189
466.8,0.00193
467.0,0.00195
467.2,0.00201
467.4,0.00203
467.6,0.00209
467.8,0.00208
468.0,0.00328
468.2,0.00452
468.4,0.00462
468.6,0.00465
468.8,0.00481
469.0,0.00493
469.2,0.005
469.4,0.00514
469.6,0.0052
469.8,0.00546
470.0,0.00563
470.2,0.00587
470.4,0.0061
470.6,0.00624
470.8,0.00648
471.0,0.00667
471.2,0.0069
471.4,0.00719
471.6,0.00738
471.8,0.00772
472.0,0.00809
472.2,0.00844
472.4,0.00882
472.6,0.00919
472.8,0.00971
473.0,0.01026
473.2,0.01082
473.4,0.01149
473.6,0.01216
473.8,0.01303
474.0,0.01393
474.2,0.01499
474.4,0.01609
474.6,0.01747
474.8,0.019
475.0,0.02083
475.2,0.02258
475.4,0.02477
475.6,0.02721
475.8,0.02977
476.0,0.0329
476.2,0.03652
476.4,0.04044
476.6,0.04485
476.8,0.04993
477.0,0.05535
477.2,0.0616
477.4,0.06848
477.6,0.07628
477.8,0.08448
478.0,0.09388
478.2,0.10332
478.4,0.11378
478.6,0.125
478.8,0.1366
479.0,0.14877
479.2,0.1615
479.4,0.17398
479.6,0.18636
479.8,0.19834
480.0,0.21177
480.2,0.22428
480.4,0.23478
480.6,0.24617
480.8,0.25705
481.0,0.26647
481.2,0.27595
481.4,0.28534
481.6,0.29405
481.8,0.30168
482.0,0.30904
482.2,0.31493
482.4,0.32151
482.6,0.3284
482.8,0.33552
483.0,0.34196
483.2,0.34982
483.4,0.35629
483.6,0.36395
483.8,0.37065
484.0,0.37795
484.2,0.38606
484.4,0.39456
484.6,0.40328
484.8,0.41189
485.0,0.42261
485.2,0.4323
485.4,0.44406
485.6,0.45425
485.8,0.46754
486.0,0.48171
486.2,0.49629
486.4,0.51315
486.6,0.52966
486.8,0.54856
487.0,0.5678
487.2,0.58952
487.4,0.61292
487.6,0.6383
487.8,0.6639
488.0,0.6922
488.2,0.71852
488.4,0.74463
488.6,0.76978
488.8,0.79615
489.0,0.81776
489.2,0.84184
489.4,0.86201
489.6,0.87858
489.8,0.89349
490.0,0.90631
490.2,0.91906
490.4,0.92825
490.6,0.93488
490.8,0.94211
491.0,0.94786
491.2,0.95165
491.4,0.95425
491.6,0.9588
491.8,0.96137
492.0,0.96287
492.2,0.96385
492.4,0.96447
492.6,0.9667
492.8,0.96907
493.0,0.96846
493.2,0.96807
493.4,0.96866
493.6,0.96845
493.8,0.96784
494.0,0.9681
494.2,0.97047
494.4,0.97128
494.6,0.97098
494.8,0.97003
495.0,0.96957
495.2,0.97015
495.4,0.97014
495.6,0.97222
495.8,0.97174
496.0,0.97246
496.2,0.97059
496.4,0.97194
496.6,0.97195
496.8,0.97253
497.0,0.97142
497.2,0.97067
497.4,0.97166
497.6,0.97044
497.8,0.97147
498.0,0.97068
498.2,0.96912
498.4,0.96948
498.6,0.96755
498.8,0.96726
499.0,0.96506
499.2,0.9652
499.4,0.96662
499.6,0.96671
499.8,0.9653
500.0,0.96193
500.2,0.96089
500.4,0.96036
500.6,0.95888
500.8,0.95646
501.0,0.95765
501.2,0.95668
501.4,0.95684
501.6,0.95517
501.8,0.95454
502.0,0.95325
502.2,0.95258
502.4,0.95353
502.6,0.9533
502.8,0.95525
503.0,0.95503
503.2,0.95601
503.4,0.95771
503.6,0.95882
503.8,0.95985
504.0,0.96054
504.2,0.96036
504.4,0.96148
504.6,0.96107
504.8,0.96249
505.0,0.96478
505.2,0.96666
505.4,0.96637
505.6,0.96613
505.8,0.96664
506.0,0.96977
506.2,0.97133
506.4,0.97354
506.6,0.97495
506.8,0.97374
507.0,0.97437
507.2,0.97454
507.4,0.97553
507.6,0.97652
507.8,0.97622
508.0,0.97516
508.2,0.9743
508.4,0.97511
508.6,0.97474
508.8,0.97281
509.0,0.97219
509.2,0.97258
509.4,0.97273
509.6,0.96972
509.8,0.96978
510.0,0.96693
510.2,0.96499
510.4,0.96398
510.6,0.96257
510.8,0.96095
511.0,0.96075
511.2,0.95878
511.4,0.95711
511.6,0.95421
511.8,0.95506
512.0,0.95746
512.2,0.95732
512.4,0.95473
512.6,0.95446
512.8,0.95391
513.0,0.95416
513.2,0.95435
513.4,0.95401
513.6,0.9525
513.8,0.95342
514.0,0.95522
514.2,0.95704
514.4,0.95712
514.6,0.95588
514.8,0.95683
515.0,0.95854
515.2,0.96068
515.4,0.96173
515.6,0.96456
515.8,0.96345
516.0,0.96502
516.2,0.96756
516.4,0.96829
516.6,0.96993
516.8,0.96924
517.0,0.96891
517.2,0.97049
517.4,0.9724
517.6,0.97522
517.8,0.97619
518.0,0.97619
518.2,0.975
518.4,0.9749
518.6,0.97811
518.8,0.97647
519.0,0.97618
519.2,0.97502
519.4,0.97606
519.6,0.97615
519.8,0.97702
520.0,0.97689
520.2,0.9756
520.4,0.97544
520.6,0.97713
520.8,0.97332
521.0,0.97537
521.2,0.97342
521.4,0.97347
521.6,0.97418
521.8,0.97431
522.0,0.97143
522.2,0.96824
522.4,0.96735
522.6,0.96692
522.8,0.96663
523.0,0.96435
523.2,0.96301
523.4,0.9636
523.6,0.96366
523.8,0.96312
524.0,0.96296
524.2,0.96354
524.4,0.96285
524.6,0.96245
524.8,0.96184
525.0,0.96167
525.2,0.9592
525.4,0.9565
525.6,0.95692
525.8,0.95967
526.0,0.95755
526.2,0.95773
526.4,0.9586
526.6,0.95998
526.8,0.95895
527.0,0.9595
527.2,0.95879
527.4,0.95867
527.6,0.95816
527.8,0.96046
528.0,0.95955
528.2,0.96102
528.4,0.95872
528.6,0.95814
528.8,0.95961
529.0,0.9613
529.2,0.96208
529.4,0.96279
529.6,0.96204
529.8,0.96213
530.0,0.96259
530.2,0.9629
530.4,0.96289
530.6,0.9604
530.8,0.96268
531.0,0.96457
531.2,0.96219
531.4,0.96085
531.6,0.96347
531.8,0.96265
532.0,0.96267
532.2,0.96209
532.4,0.96398
532.6,0.96343
532.8,0.96119
533.0,0.96184
533.2,0.96102
533.4,0.96182
533.6,0.96026
533.8,0.9616
534.0,0.96307
534.2,0.96041
534.4,0.95826
534.6,0.95887
534.8,0.96027
535.0,0.95922
535.2,0.9609
535.4,0.95869
535.6,0.95792
535.8,0.95613
536.0,0.95512
536.2,0.95463
536.4,0.95706
536.6,0.95927
536.8,0.95845
537.0,0.95745
537.2,0.95893
537.4,0.95883
537.6,0.95809
537.8,0.95629
538.0,0.95654
538.2,0.95646
538.4,0.95561
538.6,0.95548
538.8,0.95678
539.0,0.95672
539.2,0.95662
539.4,0.95712
539.6,0.95788
539.8,0.95946
540.0,0.96111
540.2,0.96122
540.4,0.95964
540.6,0.96133
540.8,0.96472
541.0,0.96301
541.2,0.96272
541.4,0.96354
541.6,0.964
541.8,0.96391
542.0,0.96429
542.2,0.96387
542.4,0.96319
542.6,0.9627
542.8,0.96188
543.0,0.96182
543.2,0.96354
543.4,0.96235
543.6,0.96432
543.8,0.96408
544.0,0.96435
544.2,0.96326
544.4,0.96378
544.6,0.96203
544.8,0.96129
545.0,0.96201
545.2,0.96239
545.4,0.96228
545.6,0.96061
545.8,0.96099
546.0,0.96057
546.2,0.96184
546.4,0.96191
546.6,0.95971
546.8,0.95914
547.0,0.95921
547.2,0.95972
547.4,0.95939
547.6,0.96054
547.8,0.96026
548.0,0.95898
548.2,0.96158
548.4,0.96096
548.6,0.96028
548.8,0.9589
549.0,0.958
549.2,0.95821
549.4,0.96076
549.6,0.95988
549.8,0.95929
550.0,0.95883
550.2,0.96022
550.4,0.96
550.6,0.95883
550.8,0.95837
551.0,0.95899
551.2,0.9609
551.4,0.96126
551.6,0.95948
551.8,0.96211
552.0,0.96344
552.2,0.96088
552.4,0.96002
552.6,0.95999
552.8,0.96186
553.0,0.96292
553.2,0.96323
553.4,0.96107
553.6,0.96235
553.8,0.96256
554.0,0.96319
554.2,0.96275
554.4,0.96198
554.6,0.96365
554.8,0.96399
555.0,0.96606
555.2,0.96426
555.4,0.96449
555.6,0.96623
555.8,0.96531
556.0,0.96467
556.2,0.96451
556.4,0.96249
556.6,0.96321
556.8,0.96435
557.0,0.96561
557.2,0.96539
557.4,0.96543
557.6,0.96409
557.8,0.96409
558.0,0.96519
558.2,0.96296
558.4,0.96287
558.6,0.96135
558.8,0.96294
559.0,0.96444
559.2,0.96543
559.4,0.96599
559.6,0.96594
559.8,0.96479
560.0,0.96518
560.2,0.96452
560.4,0.96544
560.6,0.96532
560.8,0.96772
561.0,0.96759
561.2,0.96689
561.4,0.96723
561.6,0.96446
561.8,0.9638
562.0,0.96478
562.2,0.96548
562.4,0.96592
562.6,0.96446
562.8,0.96515
563.0,0.96395
563.2,0.96241
563.4,0.96099
563.6,0.95866
563.8,0.95827
564.0,0.96032
564.2,0.96258
564.4,0.96192
564.6,0.9633
564.8,0.96344
565.0,0.96274
565.2,0.96528
565.4,0.96531
565.6,0.96349
565.8,0.96236
566.0,0.96253
566.2,0.96246
566.4,0.96294
566.6,0.96232
566.8,0.96285
567.0,0.96135
567.2,0.96227
567.4,0.96353
567.6,0.96366
567.8,0.96216
568.0,0.96226
568.2,0.96256
568.4,0.96436
568.6,0.96329
568.8,0.9632
569.0,0.96262
569.2,0.96276
569.4,0.96294
569.6,0.96228
569.8,0.96097
570.0,0.96268
570.2,0.96249
570.4,0.96075
570.6,0.96047
570.8,0.96396
571.0,0.96355
571.2,0.96148
571.4,0.96115
571.6,0.96197
571.8,0.9631
572.0,0.96313
572.2,0.96078
572.4,0.96216
572.6,0.96143
572.8,0.96086
573.0,0.96272
573.2,0.96335
573.4,0.96224
573.6,0.96215
573.8,0.96319
574.0,0.96522
574.2,0.96352
574.4,0.96359
574.6,0.9658
574.8,0.96485
575.0,0.96583
575.2,0.96577
575.4,0.9649
575.6,0.9667
575.8,0.96604
576.0,0.96589
576.2,0.96472
576.4,0.96666
576.6,0.96814
576.8,0.96732
577.0,0.96897
577.2,0.96946
577.4,0.9679
577.6,0.96627
577.8,0.96729
578.0,0.96753
578.2,0.96812
578.4,0.96873
578.6,0.96743
578.8,0.96991
579.0,0.97044
579.2,0.96916
579.4,0.96857
579.6,0.96744
579.8,0.97063
580.0,0.97196
580.2,0.9688
580.4,0.96785
580.6,0.96701
580.8,0.96944
581.0,0.96843
581.2,0.96899
581.4,0.96956
581.6,0.97074
581.8,0.96792
582.0,0.96923
582.2,0.96736
582.4,0.96773
582.6,0.97076
582.8,0.97019
583.0,0.97182
583.2,0.96887
583.4,0.96722
583.6,0.9672
583.8,0.96895
584.0,0.96804
584.2,0.96956
584.4,0.96658
584.6,0.96743
584.8,0.96814
585.0,0.96663
585.2,0.96609
585.4,0.96957
585.6,0.96867
585.8,0.96666
586.0,0.96236
586.2,0.96368
586.4,0.96511
586.6,0.96612
586.8,0.9676
587.0,0.9666
587.2,0.96574
587.4,0.96724
587.6,0.96839
587.8,0.96724
588.0,0.96691
588.2,0.96645
588.4,0.96321
588.6,0.96465
588.8,0.96495
589.0,0.96215
589.2,0.96461
589.4,0.96619
589.6,0.96916
589.8,0.96858
590.0,0.96648
590.2,0.96733
590.4,0.9681
590.6,0.96706
590.8,0.96597
591.0,0.96722
591.2,0.96716
591.4,0.96773
591.6,0.96866
591.8,0.97028
592.0,0.9699
592.2,0.96779
592.4,0.96778
592.6,0.96987
592.8,0.96931
593.0,0.97067
593.2,0.96919
593.4,0.96814
593.6,0.97028
593.8,0.97318
594.0,0.97199
594.2,0.97331
594.4,0.97526
594.6,0.97418
594.8,0.97529
595.0,0.97278
595.2,0.97333
595.4,0.97149
595.6,0.97149
595.8,0.97231
596.0,0.97295
596.2,0.97174
596.4,0.97018
596.6,0.97068
596.8,0.97132
597.0,0.97107
597.2,0.97138
597.4,0.97039
597.6,0.97377
597.8,0.97406
598.0,0.97237
598.2,0.97315
598.4,0.9734
598.6,0.97422
598.8,0.97383
599.0,0.97239
599.2,0.97327
599.4,0.9702
599.6,0.96988
599.8,0.96946
600.0,0.96713
600.2,0.96743
600.4,0.96683
600.6,0.96694
600.8,0.96612
601.0,0.96834
601.2,0.96708
601.4,0.96829
601.6,0.96828
601.8,0.96751
602.0,0.9663
602.2,0.96549
602.4,0.96663
602.6,0.96733
602.8,0.96545
603.0,0.96522
603.2,0.96187
603.4,0.96279
603.6,0.9647
603.8,0.96463
604.0,0.96163
604.2,0.9608
604.4,0.96181
604.6,0.96253
604.8,0.96196
605.0,0.96389
605.2,0.96304
605.4,0.9622
605.6,0.96171
605.8,0.96264
606.0,0.964
606.2,0.96374
606.4,0.96456
606.6,0.96329
606.8,0.96386
607.0,0.96369
607.2,0.96422
607.4,0.96698
607.6,0.96718
607.8,0.96524
608.0,0.96437
608.2,0.96469
608.4,0.96685
608.6,0.96676
608.8,0.96568
609.0,0.96354
609.2,0.96543
609.4,0.96481
609.6,0.96412
609.8,0.96689
610.0,0.9686
610.2,0.96815
610.4,0.96768
610.6,0.97095
610.8,0.973
611.0,0.97148
611.2,0.97304
611.4,0.97361
611.6,0.97187
611.8,0.97229
612.0,0.97538
612.2,0.97413
612.4,0.97255
612.6,0.97419
612.8,0.9742
613.0,0.97362
613.2,0.97121
613.4,0.9711
613.6,0.97211
613.8,0.97317
614.0,0.97454
614.2,0.97317
614.4,0.9727
614.6,0.97155
614.8,0.97263
615.0,0.97241
615.2,0.97141
615.4,0.97094
615.6,0.96939
615.8,0.96848
616.0,0.9677
616.2,0.96718
616.4,0.96835
616.6,0.96777
616.8,0.96977
617.0,0.971
617.2,0.96814
617.4,0.96759
617.6,0.96683
617.8,0.96623
618.0,0.96683
618.2,0.96537
618.4,0.96511
618.6,0.96808
618.8,0.96761
619.0,0.96796
619.2,0.96809
619.4,0.96589
619.6,0.96384
619.8,0.96449
620.0,0.96538
620.2,0.96433
620.4,0.9632
620.6,0.96327
620.8,0.96173
621.0,0.96239
621.2,0.96223
621.4,0.96274
621.6,0.96251
621.8,0.96009
622.0,0.96175
622.2,0.96041
622.4,0.96238
622.6,0.96372
622.8,0.965
623.0,0.96326
623.2,0.96384
623.4,0.96257
623.6,0.96115
623.8,0.95994
624.0,0.95885
624.2,0.96037
624.4,0.96179
624.6,0.96214
624.8,0.96219
625.0,0.96239
625.2,0.96234
625.4,0.96379
625.6,0.96244
625.8,0.9641
626.0,0.96535
626.2,0.96385
626.4,0.96593
626.6,0.96647
