Type: filter
Name: NI-ch1f2
## Typical Measured Spectrum of Semrock FF01-582/75 Optical Filter
## For wavelengths between 320 and 1120 nm, values near or below 3e-7 (Optical Density 6.5) are measurement noise limited.
## For wavelengths < 320 nm and > 1120 nm, values near or below 3e-6 (Optical Density 5.5) are measurement noise limited.
wavelength,transmission
300.0,3.8475e-07
300.2,4.4087e-07
300.4,5.0519e-07
300.6,5.7888e-07
300.8,6.6333e-07
301.0,7.6009e-07
301.2,8.7097e-07
301.4,9.9803e-07
301.6,1.1436e-06
301.8,1.3104e-06
302.0,1.3851e-06
302.2,1.4603e-06
302.4,1.5396e-06
302.6,1.6233e-06
302.8,1.7114e-06
303.0,1.8044e-06
303.2,1.9024e-06
303.4,2.0057e-06
303.6,2.1146e-06
303.8,2.2295e-06
304.0,2.0586e-06
304.2,1.829e-06
304.4,1.6251e-06
304.6,1.4438e-06
304.8,1.2828e-06
305.0,1.1398e-06
305.2,1.0127e-06
305.4,8.9972e-07
305.6,7.9939e-07
305.8,7.1024e-07
306.0,6.9492e-07
306.2,7.2911e-07
306.4,7.6499e-07
306.6,8.0263e-07
306.8,8.4212e-07
307.0,8.8355e-07
307.2,9.2703e-07
307.4,9.7264e-07
307.6,1.0205e-06
307.8,1.0707e-06
308.0,1.1913e-06
308.2,1.4529e-06
308.4,1.7719e-06
308.6,2.1609e-06
308.8,2.6354e-06
309.0,3.214e-06
309.2,3.9197e-06
309.4,4.7804e-06
309.6,5.83e-06
309.8,7.1102e-06
310.0,8.6437e-06
310.2,1.0211e-05
310.4,1.2062e-05
310.6,1.4248e-05
310.8,1.6831e-05
311.0,1.9882e-05
311.2,2.3487e-05
311.4,2.7744e-05
311.6,3.2774e-05
311.8,3.8715e-05
312.0,3.9273e-05
312.2,3.9619e-05
312.4,3.9968e-05
312.6,4.032e-05
312.8,4.0675e-05
313.0,4.1034e-05
313.2,4.1395e-05
313.4,4.176e-05
313.6,4.2128e-05
313.8,4.2499e-05
314.0,3.7855e-05
314.2,3.2522e-05
314.4,2.794e-05
314.6,2.4004e-05
314.8,2.0622e-05
315.0,1.7716e-05
315.2,1.522e-05
315.4,1.3076e-05
315.6,1.1234e-05
315.8,9.6509e-06
316.0,8.7389e-06
316.2,8.2076e-06
316.4,7.7086e-06
316.6,7.2399e-06
316.8,6.7997e-06
317.0,6.3863e-06
317.2,5.998e-06
317.4,5.6333e-06
317.6,5.2908e-06
317.8,4.9692e-06
318.0,5.1883e-06
318.2,6.3495e-06
318.4,7.7705e-06
318.6,9.5096e-06
318.8,1.1638e-05
319.0,1.4243e-05
319.2,1.743e-05
319.4,2.1331e-05
319.6,2.6105e-05
319.8,3.1948e-05
320.0,3.8522e-05
320.2,4.1196e-05
320.4,4.4056e-05
320.6,4.7114e-05
320.8,5.0385e-05
321.0,5.3882e-05
321.2,5.7623e-05
321.4,6.1623e-05
321.6,6.59e-05
321.8,7.0475e-05
322.0,6.4008e-05
322.2,5.7532e-05
322.4,5.1711e-05
322.6,4.6479e-05
322.8,4.1776e-05
323.0,3.7549e-05
323.2,3.375e-05
323.4,3.0335e-05
323.6,2.7266e-05
323.8,2.4507e-05
324.0,2.1418e-05
324.2,1.8549e-05
324.4,1.6064e-05
324.6,1.3912e-05
324.8,1.2048e-05
325.0,1.0434e-05
325.2,9.0366e-06
325.4,7.8261e-06
325.6,6.7777e-06
325.8,5.8698e-06
326.0,5.3081e-06
326.2,4.9594e-06
326.4,4.6335e-06
326.6,4.3291e-06
326.8,4.0447e-06
327.0,3.7789e-06
327.2,3.5307e-06
327.4,3.2987e-06
327.6,3.082e-06
327.8,2.8795e-06
328.0,2.7577e-06
328.2,2.7454e-06
328.4,2.7331e-06
328.6,2.7208e-06
328.8,2.7086e-06
329.0,2.6964e-06
329.2,2.6843e-06
329.4,2.6723e-06
329.6,2.6603e-06
329.8,2.6484e-06
330.0,2.627e-06
330.2,2.5269e-06
330.4,2.4306e-06
330.6,2.338e-06
330.8,2.2489e-06
331.0,2.1632e-06
331.2,2.0807e-06
331.4,2.0015e-06
331.6,1.9252e-06
331.8,1.8518e-06
332.0,1.909e-06
332.2,1.9744e-06
332.4,2.0421e-06
332.6,2.1121e-06
332.8,2.1844e-06
333.0,2.2593e-06
333.2,2.3367e-06
333.4,2.4167e-06
333.6,2.4995e-06
333.8,2.5852e-06
334.0,2.5277e-06
334.2,2.4316e-06
334.4,2.339e-06
334.6,2.25e-06
334.8,2.1644e-06
335.0,2.0821e-06
335.2,2.0029e-06
335.4,1.9267e-06
335.6,1.8534e-06
335.8,1.7829e-06
336.0,1.4331e-06
336.2,1.022e-06
336.4,7.2883e-07
336.6,5.1976e-07
336.8,3.7066e-07
337.0,2.6433e-07
337.2,1.885e-07
337.4,1.3443e-07
337.6,9.5865e-08
337.8,6.8365e-08
338.0,6.3724e-08
338.2,8.5333e-08
338.4,1.1427e-07
338.6,1.5302e-07
338.8,2.0491e-07
339.0,2.7439e-07
339.2,3.6744e-07
339.4,4.9204e-07
339.6,6.589e-07
339.8,8.8233e-07
340.0,1.1368e-06
340.2,1.118e-06
340.4,1.0995e-06
340.6,1.0812e-06
340.8,1.0633e-06
341.0,1.0457e-06
341.2,1.0284e-06
341.4,1.0114e-06
341.6,9.9461e-07
341.8,9.7814e-07
342.0,8.1698e-07
342.2,6.701e-07
342.4,5.4963e-07
342.6,4.5082e-07
342.8,3.6977e-07
343.0,3.0329e-07
343.2,2.4876e-07
343.4,2.0404e-07
343.6,1.6736e-07
343.8,1.3727e-07
344.0,1.1972e-07
344.2,1.0687e-07
344.4,9.5403e-08
344.6,8.5165e-08
344.8,7.6026e-08
345.0,6.7868e-08
345.2,6.0585e-08
345.4,5.4083e-08
345.6,4.8279e-08
345.8,4.3098e-08
346.0,4.0982e-08
346.2,4.0995e-08
346.4,4.1008e-08
346.6,4.1021e-08
346.8,4.1034e-08
347.0,4.1047e-08
347.2,4.106e-08
347.4,4.1073e-08
347.6,4.1085e-08
347.8,4.1098e-08
348.0,4.4965e-08
348.2,5.6767e-08
348.4,7.1667e-08
348.6,9.0478e-08
348.8,1.1423e-07
349.0,1.4421e-07
349.2,1.8206e-07
349.4,2.2984e-07
349.6,2.9017e-07
349.8,3.6633e-07
350.0,4.3811e-07
350.2,3.3811e-07
350.4,2.6094e-07
350.6,2.0138e-07
350.8,1.5541e-07
351.0,1.1994e-07
351.2,9.2562e-08
351.4,7.1435e-08
351.6,5.5129e-08
351.8,4.2546e-08
352.0,5.5404e-08
352.2,7.5979e-08
352.4,1.0419e-07
352.6,1.4289e-07
352.8,1.9595e-07
353.0,2.6872e-07
353.2,3.6852e-07
353.4,5.0537e-07
353.6,6.9305e-07
353.8,9.5043e-07
354.0,8.9679e-07
354.2,7.42e-07
354.4,6.1394e-07
354.6,5.0797e-07
354.8,4.203e-07
355.0,3.4776e-07
355.2,2.8774e-07
355.4,2.3807e-07
355.6,1.9698e-07
355.8,1.6298e-07
356.0,1.588e-07
356.2,1.746e-07
356.4,1.9197e-07
356.6,2.1107e-07
356.8,2.3206e-07
357.0,2.5515e-07
357.2,2.8053e-07
357.4,3.0843e-07
357.6,3.3912e-07
357.8,3.7285e-07
358.0,3.7524e-07
358.2,3.325e-07
358.4,2.9463e-07
358.6,2.6108e-07
358.8,2.3135e-07
359.0,2.05e-07
359.2,1.8165e-07
359.4,1.6096e-07
359.6,1.4263e-07
359.8,1.2639e-07
360.0,1.1189e-07
360.2,9.8384e-08
360.4,8.6511e-08
360.6,7.607e-08
360.8,6.6889e-08
361.0,5.8817e-08
361.2,5.1718e-08
361.4,4.5477e-08
361.6,3.9988e-08
361.8,3.5162e-08
362.0,3.4792e-08
362.2,3.4756e-08
362.4,3.4721e-08
362.6,3.4685e-08
362.8,3.465e-08
363.0,3.4614e-08
363.2,3.4579e-08
363.4,3.4543e-08
363.6,3.4508e-08
363.8,3.4473e-08
364.0,3.447e-08
364.2,3.4476e-08
364.4,3.4483e-08
364.6,3.449e-08
364.8,3.4497e-08
365.0,3.4504e-08
365.2,3.4511e-08
365.4,3.4518e-08
365.6,3.4525e-08
365.8,3.4532e-08
366.0,3.7469e-08
366.2,4.2924e-08
366.4,4.9173e-08
366.6,5.6331e-08
366.8,6.4532e-08
367.0,7.3926e-08
367.2,8.4689e-08
367.4,9.7018e-08
367.6,1.1114e-07
367.8,1.2732e-07
368.0,1.4116e-07
368.2,1.5023e-07
368.4,1.5989e-07
368.6,1.7017e-07
368.8,1.8111e-07
369.0,1.9276e-07
369.2,2.0515e-07
369.4,2.1834e-07
369.6,2.3238e-07
369.8,2.4732e-07
370.0,2.526e-07
370.2,2.0238e-07
370.4,1.6215e-07
370.6,1.2991e-07
370.8,1.0408e-07
371.0,8.3388e-08
371.2,6.681e-08
371.4,5.3527e-08
371.6,4.2885e-08
371.8,3.4359e-08
372.0,3.3524e-08
372.2,3.3392e-08
372.4,3.3261e-08
372.6,3.3131e-08
372.8,3.3e-08
373.0,3.2871e-08
373.2,3.2742e-08
373.4,3.2613e-08
373.6,3.2486e-08
373.8,3.2358e-08
374.0,3.6311e-08
374.2,4.2399e-08
374.4,4.9507e-08
374.6,5.7807e-08
374.8,6.7499e-08
375.0,7.8815e-08
375.2,9.2029e-08
375.4,1.0746e-07
375.6,1.2547e-07
375.8,1.4651e-07
376.0,1.6017e-07
376.2,1.6744e-07
376.4,1.7504e-07
376.6,1.8298e-07
376.8,1.9128e-07
377.0,1.9995e-07
377.2,2.0902e-07
377.4,2.1851e-07
377.6,2.2842e-07
377.8,2.3878e-07
378.0,2.6341e-07
378.2,3.1076e-07
378.4,3.6662e-07
378.6,4.3251e-07
378.8,5.1025e-07
379.0,6.0197e-07
379.2,7.1017e-07
379.4,8.3782e-07
379.6,9.8841e-07
379.8,1.1661e-06
380.0,1.3549e-06
380.2,1.439e-06
380.4,1.5284e-06
380.6,1.6233e-06
380.8,1.7241e-06
381.0,1.8312e-06
381.2,1.9449e-06
381.4,2.0657e-06
381.6,2.1939e-06
381.8,2.3302e-06
382.0,2.3572e-06
382.2,2.3681e-06
382.4,2.379e-06
382.6,2.3899e-06
382.8,2.4009e-06
383.0,2.412e-06
383.2,2.423e-06
383.4,2.4342e-06
383.6,2.4454e-06
383.8,2.4566e-06
384.0,2.4267e-06
384.2,2.3815e-06
384.4,2.3371e-06
384.6,2.2935e-06
384.8,2.2508e-06
385.0,2.2088e-06
385.2,2.1677e-06
385.4,2.1273e-06
385.6,2.0876e-06
385.8,2.0487e-06
386.0,2.0598e-06
386.2,2.1084e-06
386.4,2.1582e-06
386.6,2.2091e-06
386.8,2.2612e-06
387.0,2.3145e-06
387.2,2.3691e-06
387.4,2.425e-06
387.6,2.4822e-06
387.8,2.5408e-06
388.0,2.5737e-06
388.2,2.5704e-06
388.4,2.5671e-06
388.6,2.5639e-06
388.8,2.5606e-06
389.0,2.5573e-06
389.2,2.5541e-06
389.4,2.5508e-06
389.6,2.5476e-06
389.8,2.5443e-06
390.0,2.5375e-06
390.2,2.5088e-06
390.4,2.4804e-06
390.6,2.4523e-06
390.8,2.4245e-06
391.0,2.397e-06
391.2,2.3699e-06
391.4,2.3431e-06
391.6,2.3165e-06
391.8,2.2903e-06
392.0,2.2759e-06
392.2,2.2634e-06
392.4,2.251e-06
392.6,2.2386e-06
392.8,2.2263e-06
393.0,2.2141e-06
393.2,2.2019e-06
393.4,2.1898e-06
393.6,2.1778e-06
393.8,2.1658e-06
394.0,2.1228e-06
394.2,2.0688e-06
394.4,2.0162e-06
394.6,1.965e-06
394.8,1.915e-06
395.0,1.8664e-06
395.2,1.8189e-06
395.4,1.7727e-06
395.6,1.7276e-06
395.8,1.6837e-06
396.0,1.6787e-06
396.2,1.7022e-06
396.4,1.726e-06
396.6,1.7502e-06
396.8,1.7746e-06
397.0,1.7994e-06
397.2,1.8246e-06
397.4,1.8501e-06
397.6,1.876e-06
397.8,1.9022e-06
398.0,1.9106e-06
398.2,1.8954e-06
398.4,1.8803e-06
398.6,1.8653e-06
398.8,1.8505e-06
399.0,1.8357e-06
399.2,1.8211e-06
399.4,1.8066e-06
399.6,1.7922e-06
399.8,1.778e-06
400.0,1.6973e-06
400.2,1.303e-06
400.4,1.0004e-06
400.6,7.6799e-07
400.8,5.896e-07
401.0,4.5265e-07
401.2,3.475e-07
401.4,2.6678e-07
401.6,2.0481e-07
401.8,1.5724e-07
402.0,1.5185e-07
402.2,1.5086e-07
402.4,1.4988e-07
402.6,1.4891e-07
402.8,1.4794e-07
403.0,1.4698e-07
403.2,1.4603e-07
403.4,1.4508e-07
403.6,1.4414e-07
403.8,1.4321e-07
404.0,1.5815e-07
404.2,1.8093e-07
404.4,2.0698e-07
404.6,2.3679e-07
404.8,2.7089e-07
405.0,3.099e-07
405.2,3.5453e-07
405.4,4.0559e-07
405.6,4.6399e-07
405.8,5.3081e-07
406.0,4.908e-07
406.2,3.9604e-07
406.4,3.1958e-07
406.6,2.5788e-07
406.8,2.081e-07
407.0,1.6792e-07
407.2,1.355e-07
407.4,1.0934e-07
407.6,8.8231e-08
407.8,7.1197e-08
408.0,6.8713e-08
408.2,8.0821e-08
408.4,9.5063e-08
408.6,1.1181e-07
408.8,1.3152e-07
409.0,1.5469e-07
409.2,1.8195e-07
409.4,2.1402e-07
409.6,2.5173e-07
409.8,2.9609e-07
410.0,3.3694e-07
410.2,3.2624e-07
410.4,3.1588e-07
410.6,3.0586e-07
410.8,2.9615e-07
411.0,2.8674e-07
411.2,2.7764e-07
411.4,2.6883e-07
411.6,2.6029e-07
411.8,2.5203e-07
412.0,2.134e-07
412.2,1.7678e-07
412.4,1.4645e-07
412.6,1.2132e-07
412.8,1.0051e-07
413.0,8.3261e-08
413.2,6.8975e-08
413.4,5.714e-08
413.6,4.7336e-08
413.8,3.9214e-08
414.0,3.5366e-08
414.2,3.294e-08
414.4,3.0681e-08
414.6,2.8576e-08
414.8,2.6616e-08
415.0,2.4791e-08
415.2,2.309e-08
415.4,2.1507e-08
415.6,2.0031e-08
415.8,1.8657e-08
416.0,1.8096e-08
416.2,1.8042e-08
416.4,1.7988e-08
416.6,1.7934e-08
416.8,1.788e-08
417.0,1.7827e-08
417.2,1.7774e-08
417.4,1.7721e-08
417.6,1.7668e-08
417.8,1.7615e-08
418.0,1.8626e-08
418.2,2.1074e-08
418.4,2.3844e-08
418.6,2.6978e-08
418.8,3.0524e-08
419.0,3.4535e-08
419.2,3.9075e-08
419.4,4.421e-08
419.6,5.0021e-08
419.8,5.6595e-08
420.0,6.1183e-08
420.2,5.2958e-08
420.4,4.5839e-08
420.6,3.9676e-08
420.8,3.4342e-08
421.0,2.9725e-08
421.2,2.5729e-08
421.4,2.227e-08
421.6,1.9276e-08
421.8,1.6685e-08
422.0,1.8238e-08
422.2,2.0843e-08
422.4,2.3819e-08
422.6,2.7221e-08
422.8,3.1108e-08
423.0,3.555e-08
423.2,4.0627e-08
423.4,4.6428e-08
423.6,5.3059e-08
423.8,6.0635e-08
424.0,6.4739e-08
424.2,6.7272e-08
424.4,6.9904e-08
424.6,7.2639e-08
424.8,7.5481e-08
425.0,7.8434e-08
425.2,8.1503e-08
425.4,8.4691e-08
425.6,8.8005e-08
425.8,9.1448e-08
426.0,8.3711e-08
426.2,7.0038e-08
426.4,5.8599e-08
426.6,4.9028e-08
426.8,4.102e-08
427.0,3.432e-08
427.2,2.8714e-08
427.4,2.4024e-08
427.6,2.01e-08
427.8,1.6817e-08
428.0,1.7805e-08
428.2,2.4717e-08
428.4,3.4311e-08
428.6,4.763e-08
428.8,6.6119e-08
429.0,9.1784e-08
429.2,1.2741e-07
429.4,1.7687e-07
429.6,2.4553e-07
429.8,3.4083e-07
430.0,4.5241e-07
430.2,4.8254e-07
430.4,5.1469e-07
430.6,5.4897e-07
430.8,5.8554e-07
431.0,6.2454e-07
431.2,6.6614e-07
431.4,7.1052e-07
431.6,7.5785e-07
431.8,8.0833e-07
432.0,7.7641e-07
432.2,7.3314e-07
432.4,6.9229e-07
432.6,6.5371e-07
432.8,6.1728e-07
433.0,5.8288e-07
433.2,5.504e-07
433.4,5.1972e-07
433.6,4.9076e-07
433.8,4.6341e-07
434.0,4.0029e-07
434.2,3.3484e-07
434.4,2.8009e-07
434.6,2.343e-07
434.8,1.9599e-07
435.0,1.6394e-07
435.2,1.3714e-07
435.4,1.1472e-07
435.6,9.5959e-08
435.8,8.0269e-08
436.0,8.1355e-08
436.2,9.2986e-08
436.4,1.0628e-07
436.6,1.2148e-07
436.8,1.3884e-07
437.0,1.5869e-07
437.2,1.8138e-07
437.4,2.0731e-07
437.6,2.3695e-07
437.8,2.7083e-07
438.0,2.765e-07
438.2,2.5159e-07
438.4,2.2893e-07
438.6,2.083e-07
438.8,1.8954e-07
439.0,1.7246e-07
439.2,1.5692e-07
439.4,1.4279e-07
439.6,1.2992e-07
439.8,1.1822e-07
440.0,1.0882e-07
440.2,1.0523e-07
440.4,1.0175e-07
440.6,9.8393e-08
440.8,9.5144e-08
441.0,9.2003e-08
441.2,8.8966e-08
441.4,8.6029e-08
441.6,8.3188e-08
441.8,8.0442e-08
442.0,9.0212e-08
442.2,1.0417e-07
442.4,1.203e-07
442.6,1.3892e-07
442.8,1.6042e-07
443.0,1.8525e-07
443.2,2.1392e-07
443.4,2.4703e-07
443.6,2.8526e-07
443.8,3.2942e-07
444.0,3.2797e-07
444.2,3.0779e-07
444.4,2.8886e-07
444.6,2.7109e-07
444.8,2.5441e-07
445.0,2.3875e-07
445.2,2.2406e-07
445.4,2.1028e-07
445.6,1.9734e-07
445.8,1.852e-07
446.0,1.5877e-07
446.2,1.2814e-07
446.4,1.0341e-07
446.6,8.3463e-08
446.8,6.736e-08
447.0,5.4365e-08
447.2,4.3876e-08
447.4,3.5411e-08
447.6,2.8579e-08
447.8,2.3065e-08
448.0,2.0916e-08
448.2,2.1413e-08
448.4,2.1922e-08
448.6,2.2443e-08
448.8,2.2976e-08
449.0,2.3522e-08
449.2,2.4081e-08
449.4,2.4654e-08
449.6,2.5239e-08
449.8,2.5839e-08
450.0,2.6425e-08
450.2,2.6904e-08
450.4,2.7392e-08
450.6,2.7888e-08
450.8,2.8393e-08
451.0,2.8908e-08
451.2,2.9431e-08
451.4,2.9965e-08
451.6,3.0507e-08
451.8,3.106e-08
452.0,3.0989e-08
452.2,3.0781e-08
452.4,3.0574e-08
452.6,3.0368e-08
452.8,3.0164e-08
453.0,2.9962e-08
453.2,2.976e-08
453.4,2.956e-08
453.6,2.9362e-08
453.8,2.9164e-08
454.0,3.117e-08
454.2,3.435e-08
454.4,3.7855e-08
454.6,4.1717e-08
454.8,4.5974e-08
455.0,5.0665e-08
455.2,5.5834e-08
455.4,6.1531e-08
455.6,6.7809e-08
455.8,7.4727e-08
456.0,6.8863e-08
456.2,5.6325e-08
456.4,4.607e-08
456.6,3.7682e-08
456.8,3.0822e-08
457.0,2.521e-08
457.2,2.062e-08
457.4,1.6866e-08
457.6,1.3795e-08
457.8,1.1283e-08
458.0,1.0381e-08
458.2,1.0795e-08
458.4,1.1226e-08
458.6,1.1674e-08
458.8,1.2139e-08
459.0,1.2623e-08
459.2,1.3127e-08
459.4,1.365e-08
459.6,1.4195e-08
459.8,1.4761e-08
460.0,1.5091e-08
460.2,1.4381e-08
460.4,1.3704e-08
460.6,1.306e-08
460.8,1.2446e-08
461.0,1.186e-08
461.2,1.1303e-08
461.4,1.0771e-08
461.6,1.0264e-08
461.8,9.7816e-09
462.0,9.6836e-09
462.2,9.6645e-09
462.4,9.6454e-09
462.6,9.6263e-09
462.8,9.6073e-09
463.0,9.5883e-09
463.2,9.5693e-09
463.4,9.5504e-09
463.6,9.5315e-09
463.8,9.5126e-09
464.0,1.1358e-08
464.2,1.454e-08
464.4,1.8613e-08
464.6,2.3828e-08
464.8,3.0504e-08
465.0,3.905e-08
465.2,4.9991e-08
465.4,6.3996e-08
465.6,8.1926e-08
465.8,1.0488e-07
466.0,9.8888e-08
466.2,7.7304e-08
466.4,6.0432e-08
466.6,4.7242e-08
466.8,3.693e-08
467.0,2.887e-08
467.2,2.2569e-08
467.4,1.7643e-08
467.6,1.3792e-08
467.8,1.0782e-08
468.0,1.2245e-08
468.2,1.9631e-08
468.4,3.1474e-08
468.6,5.0461e-08
468.8,8.0902e-08
469.0,1.2971e-07
469.2,2.0795e-07
469.4,3.334e-07
469.6,5.3452e-07
469.8,8.5698e-07
470.0,1.2631e-06
470.2,1.3566e-06
470.4,1.457e-06
470.6,1.5648e-06
470.8,1.6806e-06
471.0,1.8049e-06
471.2,1.9385e-06
471.4,2.082e-06
471.6,2.2361e-06
471.8,2.4016e-06
472.0,2.4522e-06
472.2,2.4781e-06
472.4,2.5043e-06
472.6,2.5308e-06
472.8,2.5575e-06
473.0,2.5846e-06
473.2,2.6119e-06
473.4,2.6395e-06
473.6,2.6674e-06
473.8,2.6956e-06
474.0,2.7306e-06
474.2,2.7684e-06
474.4,2.8068e-06
474.6,2.8457e-06
474.8,2.8852e-06
475.0,2.9251e-06
475.2,2.9657e-06
475.4,3.0068e-06
475.6,3.0485e-06
475.8,3.0907e-06
476.0,3.1047e-06
476.2,3.1022e-06
476.4,3.0997e-06
476.6,3.0971e-06
476.8,3.0946e-06
477.0,3.0921e-06
477.2,3.0896e-06
477.4,3.0871e-06
477.6,3.0845e-06
477.8,3.082e-06
478.0,3.0874e-06
478.2,3.0996e-06
478.4,3.1119e-06
478.6,3.1242e-06
478.8,3.1365e-06
479.0,3.1489e-06
479.2,3.1613e-06
479.4,3.1738e-06
479.6,3.1864e-06
479.8,3.1989e-06
480.0,3.2087e-06
480.2,3.2086e-06
480.4,3.2086e-06
480.6,3.2085e-06
480.8,3.2084e-06
481.0,3.2083e-06
481.2,3.2082e-06
481.4,3.2082e-06
481.6,3.2081e-06
481.8,3.208e-06
482.0,3.2568e-06
482.2,3.3184e-06
482.4,3.3812e-06
482.6,3.4452e-06
482.8,3.5104e-06
483.0,3.5769e-06
483.2,3.6446e-06
483.4,3.7135e-06
483.6,3.7838e-06
483.8,3.8554e-06
484.0,3.8665e-06
484.2,3.8532e-06
484.4,3.8399e-06
484.6,3.8266e-06
484.8,3.8134e-06
485.0,3.8003e-06
485.2,3.7872e-06
485.4,3.7741e-06
485.6,3.7611e-06
485.8,3.7481e-06
486.0,3.7731e-06
486.2,3.8215e-06
486.4,3.8704e-06
486.6,3.92e-06
486.8,3.9702e-06
487.0,4.0211e-06
487.2,4.0726e-06
487.4,4.1247e-06
487.6,4.1776e-06
487.8,4.2311e-06
488.0,4.2779e-06
488.2,4.3187e-06
488.4,4.36e-06
488.6,4.4016e-06
488.8,4.4436e-06
489.0,4.4861e-06
489.2,4.5289e-06
489.4,4.5722e-06
489.6,4.6158e-06
489.8,4.6599e-06
490.0,6.797e-07
490.2,1.2317e-07
490.4,1.1235e-07
490.6,9.9582e-08
490.8,6.7213e-08
491.0,4.5366e-08
491.2,4.8568e-08
491.4,7.3122e-08
491.6,7.4201e-08
491.8,5.2692e-08
492.0,3.74e-08
492.2,2.4042e-08
492.4,1.5455e-08
492.6,2.1001e-08
492.8,6.4201e-08
493.0,1.1387e-07
493.2,9.8129e-08
493.4,8.4568e-08
493.6,4.1113e-08
493.8,1.8886e-08
494.0,1.5935e-08
494.2,3.4796e-08
494.4,5.9637e-08
494.6,6.3868e-08
494.8,6.8399e-08
495.0,6.9146e-08
495.2,6.8993e-08
495.4,7.1761e-08
495.6,8.2435e-08
495.8,9.5868e-08
496.0,1.158e-07
496.2,1.3988e-07
496.4,7.0221e-08
496.6,2.5267e-08
496.8,1.2475e-08
497.0,2.1006e-08
497.2,3.5584e-08
497.4,6.3271e-08
497.6,1.125e-07
497.8,1.1411e-07
498.0,7.772e-08
498.2,5.3877e-08
498.4,4.8118e-08
498.6,4.2597e-08
498.8,2.4463e-08
499.0,1.4049e-08
499.2,1.606e-08
499.4,3.6546e-08
499.6,8.3164e-08
499.8,1.2414e-07
500.0,1.8373e-07
500.2,6.5343e-08
500.4,2.0702e-08
500.6,1.5763e-08
500.8,4.4718e-08
501.0,1.2687e-07
501.2,4.6028e-08
501.4,1.2615e-08
501.6,1.7287e-08
501.8,3.2557e-08
502.0,4.101e-08
502.2,2.1541e-08
502.4,1.1315e-08
502.6,1.9781e-08
502.8,4.7155e-08
503.0,6.8497e-08
503.2,8.3604e-08
503.4,8.7889e-08
503.6,5.4416e-08
503.8,3.3692e-08
504.0,5.2054e-08
504.2,1.1901e-07
504.4,1.5449e-07
504.6,1.3858e-07
504.8,1.2146e-07
505.0,8.2964e-08
505.2,5.6667e-08
505.4,6.2321e-08
505.6,9.8903e-08
505.8,1.2895e-07
506.0,1.3918e-07
506.2,1.5023e-07
506.4,7.7391e-08
506.6,3.9573e-08
506.8,3.5582e-08
507.0,6.0464e-08
507.2,8.9282e-08
507.4,1.0859e-07
507.6,1.3208e-07
507.8,1.4029e-07
508.0,1.4679e-07
508.2,1.0143e-07
508.4,3.5616e-08
508.6,2.3359e-08
508.8,5.4469e-08
509.0,1.2701e-07
509.2,1.3325e-07
509.4,1.1591e-07
509.6,9.9416e-08
509.8,8.2382e-08
510.0,4.7648e-08
510.2,4.2571e-08
510.4,5.2312e-08
510.6,5.594e-08
510.8,1.2146e-07
511.0,1.0138e-07
511.2,8.1377e-08
511.4,1.3366e-07
511.6,7.4247e-08
511.8,2.5434e-08
512.0,4.3611e-08
512.2,7.4817e-08
512.4,2.5088e-08
512.6,5.1197e-08
512.8,7.3813e-08
513.0,4.3764e-08
513.2,6.2547e-08
513.4,4.9684e-08
513.6,3.601e-08
513.8,5.5792e-08
514.0,4.5737e-08
514.2,1.9694e-08
514.4,3.7379e-08
514.6,1.4278e-07
514.8,6.8882e-08
515.0,3.9085e-08
515.2,4.0494e-08
515.4,7.064e-08
515.6,1.1752e-07
515.8,1.179e-07
516.0,1.1472e-07
516.2,5.2372e-08
516.4,2.2041e-08
516.6,4.4346e-08
516.8,8.6218e-08
517.0,6.322e-08
517.2,8.4574e-08
517.4,3.5139e-08
517.6,1.4575e-07
517.8,1.6268e-07
518.0,8.7973e-08
518.2,5.3388e-08
518.4,6.4971e-08
518.6,5.5568e-08
518.8,1.0446e-07
519.0,7.9862e-08
519.2,9.2761e-08
519.4,7.3957e-08
519.6,5.1319e-08
519.8,7.7791e-08
520.0,9.5281e-08
520.2,1.1947e-07
520.4,1.5358e-07
520.6,1.2586e-07
520.8,9.1638e-08
521.0,7.2858e-08
521.2,6.9165e-08
521.4,7.3594e-08
521.6,7.3232e-08
521.8,6.1297e-08
522.0,8.0112e-08
522.2,6.3506e-08
522.4,3.2514e-08
522.6,5.7571e-08
522.8,8.3371e-08
523.0,7.1744e-08
523.2,9.9946e-08
523.4,5.3933e-08
523.6,4.4104e-08
523.8,1.1139e-07
524.0,8.7113e-08
524.2,1.6483e-08
524.4,5.8994e-08
524.6,4.884e-08
524.8,4.7831e-08
525.0,6.9527e-08
525.2,1.2527e-07
525.4,1.2581e-07
525.6,1.6348e-07
525.8,2.0625e-08
526.0,2.9562e-08
526.2,1.1793e-07
526.4,1.1673e-07
526.6,1.7799e-07
526.8,1.2146e-07
527.0,1.0858e-07
527.2,1.2906e-07
527.4,3.3239e-08
527.6,1.7624e-08
527.8,3.5659e-08
528.0,1.174e-07
528.2,8.9941e-08
528.4,1.3046e-07
528.6,7.7484e-08
528.8,5.8059e-08
529.0,4.7389e-08
529.2,4.2562e-08
529.4,6.3756e-08
529.6,8.1674e-08
529.8,1.3714e-07
530.0,8.0905e-08
530.2,9.8194e-08
530.4,1.1123e-07
530.6,7.0737e-08
530.8,1.3204e-07
531.0,1.2121e-07
531.2,1.0487e-07
531.4,1.1927e-07
531.6,1.1486e-07
531.8,1.2884e-07
532.0,2.3495e-07
532.2,1.7326e-07
