Type: Dichroic
Name: FF444/520/590-Di01
Typical Measured Spectrum of Semrock FF444/520/590-Di01 Optical Filter	
For wavelengths between 320 and 1120 nm, values near or below 3e-7 (Optical Density 6.5) are measurement noise limited.
For wavelengths < 320 nm and > 1120 nm, values near or below 3e-6 (Optical Density 5.5) are measurement noise limited. 
Data format:  Wavelength (nm) <tab> Transmission (0 to 1)
300.0,0.00257
300.2,0.00322
300.4,0.00382
300.6,0.00404
300.8,0.00383
301.0,0.00328
301.2,0.00247
301.4,0.00171
301.6,0.0012
301.8,8.6774e-04
302.0,7.1289e-04
302.2,6.2825e-04
302.4,5.7329e-04
302.6,5.4616e-04
302.8,5.6884e-04
303.0,6.3006e-04
303.2,7.2979e-04
303.4,8.6757e-04
303.6,0.00103
303.8,0.00151
304.0,0.0023
304.2,0.00329
304.4,0.00415
304.6,0.00446
304.8,0.00424
305.0,0.0035
305.2,0.00253
305.4,0.00168
305.6,0.0012
305.8,0.00101
306.0,9.4407e-04
306.2,9.4203e-04
306.4,9.4899e-04
306.6,9.4006e-04
306.8,0.00106
307.0,0.00133
307.2,0.00169
307.4,0.00232
307.6,0.00346
307.8,0.00565
308.0,0.00995
308.2,0.01772
308.4,0.02895
308.6,0.04348
308.8,0.06058
309.0,0.07895
309.2,0.09549
309.4,0.107
309.6,0.11247
309.8,0.11099
310.0,0.10294
310.2,0.08934
310.4,0.07393
310.6,0.05961
310.8,0.04831
311.0,0.0414
311.2,0.04125
311.4,0.0464
311.6,0.05756
311.8,0.0758
312.0,0.09759
312.2,0.11159
312.4,0.1166
312.6,0.11118
312.8,0.09607
313.0,0.07053
313.2,0.04622
313.4,0.03004
313.6,0.02076
313.8,0.01627
314.0,0.01535
314.2,0.01665
314.4,0.02002
314.6,0.02591
314.8,0.03562
315.0,0.04939
315.2,0.06469
315.4,0.07758
315.6,0.0836
315.8,0.08118
316.0,0.07053
316.2,0.05676
316.4,0.04442
316.6,0.03609
316.8,0.03298
317.0,0.0331
317.2,0.03606
317.4,0.0419
317.6,0.05051
317.8,0.05759
318.0,0.06189
318.2,0.06208
318.4,0.0577
318.6,0.04877
318.8,0.03707
319.0,0.02663
319.2,0.01902
319.4,0.01436
319.6,0.01265
319.8,0.01183
320.0,0.01169
320.2,0.01208
320.4,0.01278
320.6,0.01508
320.8,0.02048
321.0,0.03093
321.2,0.04872
321.4,0.06955
321.6,0.08396
321.8,0.09058
322.0,0.09638
322.2,0.08443
322.4,0.07396
322.6,0.05458
322.8,0.03956
323.0,0.03254
323.2,0.0277
323.4,0.02959
323.6,0.03542
323.8,0.04389
324.0,0.05596
324.2,0.06589
324.4,0.06967
324.6,0.07046
324.8,0.06436
325.0,0.05655
325.2,0.04185
325.4,0.03065
325.6,0.01932
325.8,0.01218
326.0,0.00898
326.2,0.00668
326.4,0.00581
326.6,0.00521
326.8,0.00514
327.0,0.00528
327.2,0.00554
327.4,0.00591
327.6,0.00626
327.8,0.00658
328.0,0.00679
328.2,0.00674
328.4,0.00656
328.6,0.00596
328.8,0.00536
329.0,0.00443
329.2,0.00366
329.4,0.00293
329.6,0.00234
329.8,0.00196
330.0,0.00165
330.2,0.00148
330.4,0.00135
330.6,0.00127
330.8,0.00121
331.0,0.00121
331.2,0.00125
331.4,0.00133
331.6,0.00146
331.8,0.00164
332.0,0.00194
332.2,0.00223
332.4,0.00257
332.6,0.00305
332.8,0.00367
333.0,0.00442
333.2,0.0053
333.4,0.00631
333.6,0.00751
333.8,0.00893
334.0,0.00982
334.2,0.01071
334.4,0.01167
334.6,0.01225
334.8,0.01241
335.0,0.01257
335.2,0.01267
335.4,0.01239
335.6,0.01212
335.8,0.01185
336.0,0.01167
336.2,0.01153
336.4,0.01139
336.6,0.01128
336.8,0.01123
337.0,0.01118
337.2,0.01113
337.4,0.01107
337.6,0.01102
337.8,0.01096
338.0,0.01092
338.2,0.01088
338.4,0.01084
338.6,0.01079
338.8,0.01065
339.0,0.01052
339.2,0.01038
339.4,0.00999
339.6,0.00955
339.8,0.00912
340.0,0.00856
340.2,0.00784
340.4,0.00717
340.6,0.00656
340.8,0.00593
341.0,0.00537
341.2,0.00486
341.4,0.00447
341.6,0.00416
341.8,0.00387
342.0,0.00364
342.2,0.00343
342.4,0.00337
342.6,0.00331
342.8,0.00334
343.0,0.00343
343.2,0.00352
343.4,0.00371
343.6,0.00395
343.8,0.00421
344.0,0.00455
344.2,0.00495
344.4,0.0054
344.6,0.0059
344.8,0.00647
345.0,0.00708
345.2,0.00765
345.4,0.00823
345.6,0.00885
345.8,0.00938
346.0,0.00991
346.2,0.01047
346.4,0.01083
346.6,0.01116
346.8,0.01151
347.0,0.01153
347.2,0.0115
347.4,0.01146
347.6,0.011
347.8,0.01052
348.0,0.01005
348.2,0.00925
348.4,0.00849
348.6,0.00779
348.8,0.00688
349.0,0.00608
349.2,0.00536
349.4,0.00475
349.6,0.00421
349.8,0.00373
350.0,0.00341
350.2,0.00312
350.4,0.00286
350.6,0.00275
350.8,0.00265
351.0,0.00257
351.2,0.00263
351.4,0.00269
351.6,0.00277
351.8,0.00303
352.0,0.0033
352.2,0.00365
352.4,0.00403
352.6,0.00455
352.8,0.00515
353.0,0.00583
353.2,0.00657
353.4,0.00695
353.6,0.00735
353.8,0.00777
354.0,0.00801
354.2,0.00762
354.4,0.00725
354.6,0.0069
354.8,0.00646
355.0,0.00591
355.2,0.00541
355.4,0.00496
355.6,0.00473
355.8,0.00464
356.0,0.00456
356.2,0.00447
356.4,0.00471
356.6,0.00504
356.8,0.0054
357.0,0.00579
357.2,0.0063
357.4,0.00685
357.6,0.00745
357.8,0.00792
358.0,0.00767
358.2,0.00743
358.4,0.0072
358.6,0.00663
358.8,0.00565
359.0,0.00481
359.2,0.0041
359.4,0.00343
359.6,0.00284
359.8,0.00235
360.0,0.00194
360.2,0.00172
360.4,0.00155
360.6,0.0014
360.8,0.00127
361.0,0.00126
361.2,0.00124
361.4,0.00123
361.6,0.00122
361.8,0.00122
362.0,0.00121
362.2,0.00124
362.4,0.00128
362.6,0.00131
362.8,0.00134
363.0,0.00138
363.2,0.00141
363.4,0.00145
363.6,0.00149
363.8,0.00152
364.0,0.00153
364.2,0.00154
364.4,0.00155
364.6,0.00156
364.8,0.00157
365.0,0.00158
365.2,0.00159
365.4,0.0016
365.6,0.0016
365.8,0.00161
366.0,0.00155
366.2,0.00147
366.4,0.00139
366.6,0.00132
366.8,0.00125
367.0,0.00119
367.2,0.00113
367.4,0.00107
367.6,0.00101
367.8,9.5901e-04
368.0,8.2115e-04
368.2,6.5882e-04
368.4,5.2858e-04
368.6,4.2409e-04
368.8,3.4025e-04
369.0,2.7299e-04
369.2,2.1902e-04
369.4,1.7573e-04
369.6,1.4099e-04
369.8,1.1312e-04
370.0,9.752e-05
370.2,9.1325e-05
370.4,8.5523e-05
370.6,8.009e-05
370.8,7.5001e-05
371.0,7.0237e-05
371.2,6.5774e-05
371.4,6.1596e-05
371.6,5.7683e-05
371.8,5.4018e-05
372.0,5.6685e-05
372.2,5.6044e-05
372.4,5.541e-05
372.6,5.5119e-05
372.8,5.5008e-05
373.0,5.4898e-05
373.2,5.4836e-05
373.4,5.4901e-05
373.6,5.4967e-05
373.8,5.5032e-05
374.0,5.9849e-05
374.2,6.5756e-05
374.4,7.2246e-05
374.6,8.0821e-05
374.8,9.2028e-05
375.0,1.0479e-04
375.2,1.2004e-04
375.4,1.4348e-04
375.6,1.7148e-04
375.8,2.0496e-04
376.0,2.8421e-04
376.2,4.1468e-04
376.4,6.0505e-04
376.6,9.1098e-04
376.8,0.00145
377.0,0.0023
377.2,0.00366
377.4,0.00439
377.6,0.00525
377.8,0.00627
378.0,0.00663
378.2,0.00647
378.4,0.00631
378.6,0.00586
378.8,0.00457
379.0,0.00357
379.2,0.00279
379.4,0.00223
379.6,0.00179
379.8,0.00143
380.0,0.00127
380.2,0.00124
380.4,0.00122
380.6,0.0012
380.8,0.00114
381.0,0.00107
381.2,0.00102
381.4,0.00104
381.6,0.0011
381.8,0.00116
382.0,0.00125
382.2,0.00144
382.4,0.00172
382.6,0.00208
382.8,0.00255
383.0,0.00317
383.2,0.00399
383.4,0.005
383.6,0.0063
383.8,0.00781
384.0,0.00946
384.2,0.01122
384.4,0.01272
384.6,0.01412
384.8,0.01517
385.0,0.01577
385.2,0.01614
385.4,0.01616
385.6,0.01604
385.8,0.01586
386.0,0.01573
386.2,0.01583
386.4,0.01615
386.6,0.01656
386.8,0.01708
387.0,0.01779
387.2,0.01846
387.4,0.01902
387.6,0.01948
387.8,0.01979
388.0,0.01984
388.2,0.01969
388.4,0.01928
388.6,0.01869
388.8,0.01798
389.0,0.0171
389.2,0.0162
389.4,0.01537
389.6,0.01463
389.8,0.01395
390.0,0.01342
390.2,0.01308
390.4,0.01299
390.6,0.0131
390.8,0.01328
391.0,0.01364
391.2,0.01409
391.4,0.01459
391.6,0.01513
391.8,0.01572
392.0,0.01611
392.2,0.01642
392.4,0.0166
392.6,0.01663
392.8,0.0165
393.0,0.01608
393.2,0.01553
393.4,0.01483
393.6,0.01395
393.8,0.01302
394.0,0.012
394.2,0.01111
394.4,0.01025
394.6,0.00947
394.8,0.00876
395.0,0.00823
395.2,0.00771
395.4,0.00728
395.6,0.00698
395.8,0.00681
396.0,0.00662
396.2,0.00654
396.4,0.00652
396.6,0.00661
396.8,0.00685
397.0,0.00704
397.2,0.00738
397.4,0.00781
397.6,0.00836
397.8,0.00908
398.0,0.0098
398.2,0.01076
398.4,0.01182
398.6,0.0129
398.8,0.01418
399.0,0.01558
399.2,0.01686
399.4,0.01808
399.6,0.01913
399.8,0.02025
400.0,0.02097
400.2,0.02162
400.4,0.02192
400.6,0.02224
400.8,0.02246
401.0,0.02229
401.2,0.02218
401.4,0.022
401.6,0.02191
401.8,0.02185
402.0,0.02137
402.2,0.02107
402.4,0.02109
402.6,0.0215
402.8,0.02188
403.0,0.02229
403.2,0.02287
403.4,0.02325
403.6,0.02367
403.8,0.02405
404.0,0.02421
404.2,0.02433
404.4,0.02411
404.6,0.02381
404.8,0.0233
405.0,0.02218
405.2,0.02132
405.4,0.02011
405.6,0.01869
405.8,0.01724
406.0,0.0158
406.2,0.01446
406.4,0.01323
406.6,0.01203
406.8,0.01104
407.0,0.01043
407.2,0.0099
407.4,0.00965
407.6,0.00945
407.8,0.00938
408.0,0.00958
408.2,0.0098
408.4,0.01021
408.6,0.01072
408.8,0.01126
409.0,0.01175
409.2,0.0124
409.4,0.01279
409.6,0.01326
409.8,0.01356
410.0,0.01369
410.2,0.01338
410.4,0.01301
410.6,0.01255
410.8,0.01171
411.0,0.01071
411.2,0.00965
411.4,0.00861
411.6,0.00757
411.8,0.00661
412.0,0.00571
412.2,0.00488
412.4,0.00429
412.6,0.00376
412.8,0.00337
413.0,0.00302
413.2,0.00275
413.4,0.00254
413.6,0.00231
413.8,0.00216
414.0,0.00206
414.2,0.00196
414.4,0.00185
414.6,0.0018
414.8,0.00175
415.0,0.00175
415.2,0.00176
415.4,0.00176
415.6,0.00176
415.8,0.00183
416.0,0.00185
416.2,0.00201
416.4,0.00202
416.6,0.0022
416.8,0.00238
417.0,0.0026
417.2,0.00283
417.4,0.00312
417.6,0.00357
417.8,0.00411
418.0,0.00485
418.2,0.00577
418.4,0.00699
418.6,0.00856
418.8,0.0105
419.0,0.01291
419.2,0.01553
419.4,0.01834
419.6,0.02083
419.8,0.02297
420.0,0.02449
420.2,0.02553
420.4,0.02566
420.6,0.0253
420.8,0.02443
421.0,0.023
421.2,0.02097
421.4,0.01868
421.6,0.01635
421.8,0.01407
422.0,0.01245
422.2,0.01067
422.4,0.00937
422.6,0.00837
422.8,0.00752
423.0,0.0069
423.2,0.00652
423.4,0.00647
423.6,0.00672
423.8,0.007
424.0,0.00737
424.2,0.00775
424.4,0.0081
424.6,0.00846
424.8,0.0084
425.0,0.00862
425.2,0.00895
425.4,0.00931
425.6,0.00961
425.8,0.00997
426.0,0.01036
426.2,0.01122
426.4,0.01225
426.6,0.0137
426.8,0.01516
427.0,0.01669
427.2,0.01845
427.4,0.02005
427.6,0.02133
427.8,0.02262
428.0,0.02315
428.2,0.02389
428.4,0.02375
428.6,0.02315
428.8,0.02246
429.0,0.02136
429.2,0.01985
429.4,0.01846
429.6,0.01694
429.8,0.01544
430.0,0.01412
430.2,0.01283
430.4,0.01185
430.6,0.01099
430.8,0.01009
431.0,0.00935
431.2,0.00876
431.4,0.00816
431.6,0.0077
431.8,0.00675
432.0,0.0067
432.2,0.00664
432.4,0.00636
432.6,0.0061
432.8,0.0058
433.0,0.00548
433.2,0.00517
433.4,0.0052
433.6,0.00524
433.8,0.00543
434.0,0.00563
434.2,0.00575
434.4,0.00588
434.6,0.006
434.8,0.00609
435.0,0.00618
435.2,0.00647
435.4,0.00677
435.6,0.00708
435.8,0.00745
436.0,0.00798
436.2,0.00847
436.4,0.00902
436.6,0.00971
436.8,0.01045
437.0,0.01127
437.2,0.01226
437.4,0.01333
437.6,0.01465
437.8,0.01608
438.0,0.01872
438.2,0.02074
438.4,0.02318
438.6,0.02588
438.8,0.02898
439.0,0.03256
439.2,0.03663
439.4,0.03884
439.6,0.04399
439.8,0.05005
440.0,0.05705
440.2,0.06492
440.4,0.07389
440.6,0.08464
440.8,0.09495
441.0,0.10849
441.2,0.12351
441.4,0.14003
441.6,0.15827
441.8,0.17847
442.0,0.19998
442.2,0.21889
442.4,0.24174
442.6,0.26497
442.8,0.28902
443.0,0.31175
443.2,0.33424
443.4,0.35556
443.6,0.36308
443.8,0.37649
444.0,0.39267
444.2,0.40675
444.4,0.41909
444.6,0.43027
444.8,0.43981
445.0,0.44937
445.2,0.45863
445.4,0.46866
445.6,0.48041
445.8,0.49288
446.0,0.50945
446.2,0.53044
446.4,0.5549
446.6,0.58861
446.8,0.62036
447.0,0.65648
447.2,0.69247
447.4,0.73095
447.6,0.76849
447.8,0.80415
448.0,0.83325
448.2,0.85888
448.4,0.88207
448.6,0.89834
448.8,0.91107
449.0,0.91846
449.2,0.92327
449.4,0.92583
449.6,0.92556
449.8,0.92679
450.0,0.92754
450.2,0.92689
450.4,0.9254
450.6,0.92563
450.8,0.92684
451.0,0.92669
451.2,0.92751
451.4,0.92809
451.6,0.92952
451.8,0.9272
452.0,0.92819
452.2,0.92978
452.4,0.92896
452.6,0.92897
452.8,0.92928
453.0,0.92777
453.2,0.92824
453.4,0.92949
453.6,0.92832
453.8,0.92807
454.0,0.92895
454.2,0.92921
454.4,0.929
454.6,0.9303
454.8,0.92954
455.0,0.93208
455.2,0.9302
455.4,0.92981
455.6,0.93083
455.8,0.93351
456.0,0.93356
456.2,0.93385
456.4,0.93385
456.6,0.93454
456.8,0.93521
457.0,0.93579
457.2,0.93668
457.4,0.93702
457.6,0.936
457.8,0.93559
458.0,0.93696
458.2,0.93693
458.4,0.93544
458.6,0.93556
458.8,0.93303
459.0,0.9321
459.2,0.9294
459.4,0.93047
459.6,0.92973
459.8,0.92898
460.0,0.92898
460.2,0.92787
460.4,0.92661
460.6,0.92539
460.8,0.9242
461.0,0.92184
461.2,0.92136
461.4,0.92113
461.6,0.9205
461.8,0.92021
462.0,0.91905
462.2,0.91779
462.4,0.91863
462.6,0.91741
462.8,0.91847
463.0,0.91733
463.2,0.91803
463.4,0.91659
463.6,0.91618
463.8,0.91818
464.0,0.91828
464.2,0.91947
464.4,0.91971
464.6,0.91932
464.8,0.92183
465.0,0.92237
465.2,0.9228
465.4,0.92268
465.6,0.92507
465.8,0.92635
466.0,0.92892
466.2,0.92896
466.4,0.92922
466.6,0.93185
466.8,0.93105
467.0,0.93142
467.2,0.93027
467.4,0.93289
467.6,0.93529
467.8,0.93588
468.0,0.93656
468.2,0.93604
468.4,0.93655
468.6,0.93689
468.8,0.93722
469.0,0.93787
469.2,0.93913
469.4,0.93977
469.6,0.93762
469.8,0.93797
470.0,0.9366
470.2,0.93583
470.4,0.93474
470.6,0.93248
470.8,0.93148
471.0,0.92965
471.2,0.93022
471.4,0.92655
471.6,0.92636
471.8,0.92555
472.0,0.92402
472.2,0.92284
472.4,0.92189
472.6,0.92097
472.8,0.92104
473.0,0.921
473.2,0.92138
473.4,0.92145
473.6,0.92157
473.8,0.91963
474.0,0.91913
474.2,0.92031
474.4,0.92126
474.6,0.92038
474.8,0.92106
475.0,0.92079
475.2,0.91932
475.4,0.92168
475.6,0.92248
475.8,0.92345
476.0,0.92488
476.2,0.92402
476.4,0.92506
476.6,0.92622
476.8,0.92679
477.0,0.92717
477.2,0.92533
477.4,0.92734
477.6,0.92961
477.8,0.92737
478.0,0.92931
478.2,0.93054
478.4,0.93218
478.6,0.9321
478.8,0.93462
479.0,0.93544
479.2,0.93455
479.4,0.93449
479.6,0.9358
479.8,0.93741
480.0,0.93878
480.2,0.93774
480.4,0.93473
480.6,0.93501
480.8,0.93384
481.0,0.93214
481.2,0.92957
481.4,0.92663
481.6,0.92267
481.8,0.91809
482.0,0.91245
482.2,0.90514
482.4,0.89672
482.6,0.88817
482.8,0.87568
483.0,0.86238
483.2,0.84743
483.4,0.83126
483.6,0.81102
483.8,0.7909
484.0,0.76949
484.2,0.74541
484.4,0.72318
484.6,0.69914
484.8,0.67598
485.0,0.65191
485.2,0.62849
485.4,0.60551
485.6,0.58393
485.8,0.56272
486.0,0.54357
486.2,0.52555
486.4,0.50728
486.6,0.48782
486.8,0.47093
487.0,0.45407
487.2,0.43567
487.4,0.41621
487.6,0.39711
487.8,0.37839
488.0,0.35743
488.2,0.33491
488.4,0.31285
488.6,0.28902
488.8,0.26596
489.0,0.24334
489.2,0.22327
489.4,0.2047
489.6,0.18409
489.8,0.16519
490.0,0.14769
490.2,0.13173
490.4,0.11742
490.6,0.10557
490.8,0.09667
491.0,0.08605
491.2,0.07632
491.4,0.06771
491.6,0.06043
491.8,0.05412
492.0,0.04854
492.2,0.04407
492.4,0.03972
492.6,0.03565
492.8,0.03228
493.0,0.02934
493.2,0.02651
493.4,0.02415
493.6,0.02206
493.8,0.02023
494.0,0.01845
494.2,0.01698
494.4,0.01568
494.6,0.01455
494.8,0.01349
495.0,0.01243
495.2,0.01156
495.4,0.01078
495.6,0.01011
495.8,0.00945
496.0,0.00891
496.2,0.0084
496.4,0.00828
496.6,0.0078
496.8,0.00742
497.0,0.00703
497.2,0.00669
497.4,0.0064
497.6,0.00609
497.8,0.00544
498.0,0.0052
498.2,0.005
498.4,0.00482
498.6,0.00462
498.8,0.00445
499.0,0.00433
499.2,0.00415
499.4,0.00405
499.6,0.00394
499.8,0.00384
500.0,0.00372
500.2,0.00365
500.4,0.00356
500.6,0.0035
500.8,0.00343
501.0,0.00337
501.2,0.00331
501.4,0.00327
501.6,0.00323
501.8,0.00319
502.0,0.00315
502.2,0.00312
502.4,0.00311
502.6,0.00308
502.8,0.00307
503.0,0.00306
503.2,0.00305
503.4,0.00305
503.6,0.00305
503.8,0.00306
504.0,0.00307
504.2,0.00309
504.4,0.00311
504.6,0.00313
504.8,0.00316
505.0,0.00319
505.2,0.00323
505.4,0.00328
505.6,0.00331
505.8,0.00337
506.0,0.00343
506.2,0.00349
506.4,0.00355
506.6,0.00363
506.8,0.00373
507.0,0.00383
507.2,0.00391
507.4,0.00402
507.6,0.00414
507.8,0.00466
508.0,0.00486
508.2,0.00503
508.4,0.00515
508.6,0.00535
508.8,0.00555
509.0,0.00577
509.2,0.00603
509.4,0.00625
509.6,0.00649
509.8,0.00686
510.0,0.00713
510.2,0.00752
510.4,0.00788
510.6,0.00767
510.8,0.00807
511.0,0.00849
511.2,0.009
511.4,0.00954
511.6,0.01007
511.8,0.01069
512.0,0.01117
512.2,0.0119
512.4,0.01265
512.6,0.01355
512.8,0.01447
513.0,0.01547
513.2,0.01661
513.4,0.01765
513.6,0.01897
513.8,0.02049
514.0,0.02207
514.2,0.02392
514.4,0.02593
514.6,0.02804
514.8,0.02985
515.0,0.03254
515.2,0.03544
515.4,0.03863
515.6,0.04245
515.8,0.04649
516.0,0.05112
516.2,0.0539
516.4,0.05933
516.6,0.06528
516.8,0.0719
517.0,0.07933
517.2,0.08768
517.4,0.09691
517.6,0.10719
517.8,0.11793
518.0,0.13019
518.2,0.14332
518.4,0.15767
518.6,0.17251
518.8,0.18895
519.0,0.20407
519.2,0.22171
519.4,0.2403
519.6,0.25934
519.8,0.27895
520.0,0.29993
520.2,0.31938
520.4,0.33464
520.6,0.35296
520.8,0.37217
521.0,0.3896
521.2,0.40706
521.4,0.42329
521.6,0.43846
521.8,0.45095
522.0,0.46484
522.2,0.47814
522.4,0.49277
522.6,0.50638
522.8,0.52311
523.0,0.53993
523.2,0.55786
523.4,0.57657
523.6,0.59714
523.8,0.62015
524.0,0.64463
524.2,0.67044
524.4,0.69786
524.6,0.72417
524.8,0.75096
525.0,0.7776
525.2,0.80394
525.4,0.83055
525.6,0.85127
525.8,0.86933
526.0,0.88489
526.2,0.89779
526.4,0.90949
526.6,0.91795
526.8,0.92334
527.0,0.92729
527.2,0.92925
527.4,0.93093
527.6,0.93235
527.8,0.9294
528.0,0.93077
528.2,0.93119
528.4,0.93231
528.6,0.93421
528.8,0.9336
529.0,0.93862
529.2,0.94004
529.4,0.94075
529.6,0.94134
529.8,0.94187
530.0,0.94249
530.2,0.94328
530.4,0.94663
530.6,0.94486
530.8,0.94522
531.0,0.94717
531.2,0.9474
531.4,0.94748
531.6,0.94618
531.8,0.9449
532.0,0.94541
532.2,0.94349
532.4,0.94129
532.6,0.93705
532.8,0.93518
533.0,0.93142
533.2,0.92996
533.4,0.92941
533.6,0.9283
533.8,0.92696
534.0,0.92564
534.2,0.92701
534.4,0.92525
534.6,0.92594
534.8,0.92437
535.0,0.92755
535.2,0.92823
535.4,0.93041
535.6,0.93089
535.8,0.93038
536.0,0.92984
536.2,0.9306
536.4,0.93264
536.6,0.93409
536.8,0.93635
537.0,0.93474
537.2,0.93668
537.4,0.93727
537.6,0.93645
537.8,0.9374
538.0,0.93614
538.2,0.93673
538.4,0.93442
538.6,0.93318
538.8,0.93066
539.0,0.92898
539.2,0.92604
539.4,0.92318
539.6,0.92107
539.8,0.92146
540.0,0.91865
540.2,0.91726
540.4,0.91357
540.6,0.91051
540.8,0.90846
541.0,0.90533
541.2,0.90439
541.4,0.90466
541.6,0.90385
541.8,0.90324
542.0,0.90498
542.2,0.90627
542.4,0.90638
542.6,0.90777
542.8,0.90676
543.0,0.90919
543.2,0.91138
543.4,0.91285
543.6,0.91557
543.8,0.91778
544.0,0.92074
544.2,0.92505
544.4,0.9278
544.6,0.92916
544.8,0.93205
545.0,0.93443
545.2,0.93703
545.4,0.93695
545.6,0.93881
545.8,0.94115
546.0,0.9417
546.2,0.94315
546.4,0.94399
546.6,0.94279
546.8,0.94217
547.0,0.94312
547.2,0.94297
547.4,0.94193
547.6,0.94172
547.8,0.9396
548.0,0.93923
548.2,0.93581
548.4,0.93289
548.6,0.9295
548.8,0.92312
549.0,0.91633
549.2,0.90799
549.4,0.89667
549.6,0.88513
549.8,0.87041
550.0,0.85323
550.2,0.83379
550.4,0.81345
550.6,0.78971
550.8,0.76712
551.0,0.74268
551.2,0.71765
551.4,0.69296
551.6,0.66799
551.8,0.64136
552.0,0.61433
552.2,0.58967
552.4,0.56582
552.6,0.54014
552.8,0.51617
553.0,0.49249
553.2,0.46886
553.4,0.44562
553.6,0.42255
553.8,0.39914
554.0,0.37755
554.2,0.35738
554.4,0.33652
554.6,0.31481
554.8,0.29378
555.0,0.27395
555.2,0.2543
555.4,0.23516
555.6,0.21805
555.8,0.20122
556.0,0.1857
556.2,0.17111
556.4,0.1575
556.6,0.14395
556.8,0.13198
557.0,0.12084
557.2,0.11157
557.4,0.10236
557.6,0.09367
557.8,0.08582
558.0,0.07913
558.2,0.07265
558.4,0.06684
558.6,0.06325
558.8,0.05852
559.0,0.05398
559.2,0.04997
559.4,0.04631
559.6,0.0428
559.8,0.03974
560.0,0.03678
560.2,0.03415
560.4,0.03191
560.6,0.02985
560.8,0.02793
561.0,0.02608
561.2,0.02459
561.4,0.02317
561.6,0.02188
561.8,0.0207
562.0,0.01949
562.2,0.01844
562.4,0.01744
562.6,0.01656
562.8,0.01583
563.0,0.01511
563.2,0.01441
563.4,0.01372
563.6,0.01313
563.8,0.01258
564.0,0.01205
564.2,0.01183
564.4,0.0113
564.6,0.01085
564.8,0.01045
565.0,0.01002
565.2,0.0097
565.4,0.00939
565.6,0.00902
565.8,0.00873
566.0,0.00845
566.2,0.00821
566.4,0.00802
566.6,0.00783
566.8,0.00758
567.0,0.00735
567.2,0.00721
567.4,0.00704
567.6,0.00688
567.8,0.00673
568.0,0.00662
568.2,0.00649
568.4,0.00651
568.6,0.00644
568.8,0.00635
569.0,0.00626
569.2,0.00619
569.4,0.00614
569.6,0.00608
569.8,0.00599
570.0,0.00595
570.2,0.0059
570.4,0.00586
570.6,0.00582
570.8,0.00579
571.0,0.00575
571.2,0.00575
571.4,0.00571
571.6,0.00571
571.8,0.00569
572.0,0.0057
572.2,0.00575
572.4,0.00576
572.6,0.00579
572.8,0.00584
573.0,0.00587
573.2,0.00591
573.4,0.00598
573.6,0.00603
573.8,0.00609
574.0,0.00618
574.2,0.0063
574.4,0.00635
574.6,0.00647
574.8,0.00656
575.0,0.00664
575.2,0.00677
575.4,0.00675
575.6,0.00688
575.8,0.007
576.0,0.00718
576.2,0.00736
576.4,0.00754
576.6,0.00773
576.8,0.00796
577.0,0.00819
577.2,0.00841
577.4,0.00865
577.6,0.00894
577.8,0.00922
578.0,0.0095
578.2,0.00993
578.4,0.01031
578.6,0.01064
578.8,0.01098
579.0,0.01145
